Time,Red_Signal
06:00:00.005024,497
06:00:00.021826,499
06:00:00.021826,486
06:00:00.037827,486
06:00:00.053731,482
06:00:00.054117,491
06:00:00.069803,482
06:00:00.069803,484
06:00:00.085826,483
06:00:00.101820,491
06:00:00.101820,491
06:00:00.117818,496
06:00:00.133372,492
06:00:00.133372,495
06:00:00.149389,481
06:00:00.149975,478
06:00:00.165528,475
06:00:00.181681,483
06:00:00.181681,486
06:00:00.197684,496
06:00:00.213517,498
06:00:00.214026,507
06:00:00.229517,496
06:00:00.229517,496
06:00:00.245821,493
06:00:00.261823,500
06:00:00.261823,500
06:00:00.277525,509
06:00:00.293532,496
06:00:00.293532,483
06:00:00.309405,461
06:00:00.309405,448
06:00:00.325285,436
06:00:00.341289,436
06:00:00.341289,437
06:00:00.357814,456
06:00:00.373329,477
06:00:00.373329,499
06:00:00.389598,499
06:00:00.389598,505
06:00:00.405526,505
06:00:00.421680,512
06:00:00.421680,508
06:00:00.437534,509
06:00:00.453513,501
06:00:00.453951,492
06:00:00.469631,465
06:00:00.469631,449
06:00:00.485677,432
06:00:00.501670,426
06:00:00.501670,416
06:00:00.517820,411
06:00:00.533795,402
06:00:00.533795,395
06:00:00.549472,376
06:00:00.549965,368
06:00:00.565668,360
06:00:00.581688,362
06:00:00.581688,359
06:00:00.597676,361
06:00:00.613033,358
06:00:00.614041,362
06:00:00.629809,349
06:00:00.629809,347
06:00:00.645819,343
06:00:00.661669,348
06:00:00.662188,349
06:00:00.677817,356
06:00:00.693683,358
06:00:00.694023,360
06:00:00.709568,352
06:00:00.709568,352
06:00:00.725814,353
06:00:00.741668,366
06:00:00.741668,370
06:00:00.757760,380
06:00:00.773421,386
06:00:00.774416,394
06:00:00.789807,387
06:00:00.804812,380
06:00:00.805812,369
06:00:00.820819,370
06:00:00.821819,372
06:00:00.837823,385
06:00:00.853840,398
06:00:00.853840,423
06:00:00.869363,440
06:00:00.885370,467
06:00:00.885370,494
06:00:00.901374,521
06:00:00.901374,537
06:00:00.917757,560
06:00:00.933726,576
06:00:00.933726,585
06:00:00.949784,576
06:00:00.965815,575
06:00:00.965815,571
06:00:00.981668,577
06:00:00.981668,570
06:00:00.997660,569
06:00:01.013506,568
06:00:01.014076,567
06:00:01.029595,550
06:00:01.045624,545
06:00:01.045624,541
06:00:01.061738,545
06:00:01.061738,545
06:00:01.077653,548
06:00:01.093392,547
06:00:01.093392,546
06:00:01.109808,532
06:00:01.125810,518
06:00:01.125810,510
06:00:01.141662,512
06:00:01.141662,514
06:00:01.157777,520
06:00:01.173492,525
06:00:01.173492,523
06:00:01.189664,507
06:00:01.205662,500
06:00:01.205662,495
06:00:01.221657,493
06:00:01.221657,489
06:00:01.237548,486
06:00:01.253536,482
06:00:01.254036,474
06:00:01.269039,455
06:00:01.285044,445
06:00:01.286044,429
06:00:01.301721,409
06:00:01.301721,389
06:00:01.317729,377
06:00:01.333731,369
06:00:01.333731,369
06:00:01.349744,375
06:00:01.365273,398
06:00:01.365273,421
06:00:01.381279,444
06:00:01.381279,460
06:00:01.397291,470
06:00:01.413446,472
06:00:01.413446,468
06:00:01.429733,450
06:00:01.445524,439
06:00:01.445524,430
06:00:01.461676,425
06:00:01.462043,420
06:00:01.477653,415
06:00:01.493660,411
06:00:01.493660,404
06:00:01.509809,390
06:00:01.525806,386
06:00:01.525806,383
06:00:01.541877,388
06:00:01.541877,394
06:00:01.557772,401
06:00:01.573135,410
06:00:01.574139,409
06:00:01.589806,403
06:00:01.605804,402
06:00:01.605804,406
06:00:01.621807,412
06:00:01.637642,421
06:00:01.637642,426
06:00:01.653554,432
06:00:01.653554,431
06:00:01.669671,424
06:00:01.685670,422
06:00:01.685670,425
06:00:01.701841,430
06:00:01.717650,434
06:00:01.718005,438
06:00:01.733510,445
06:00:01.733510,444
06:00:01.749656,437
06:00:01.765418,436
06:00:01.765418,443
06:00:01.781500,449
06:00:01.796925,448
06:00:01.797924,440
06:00:01.812928,433
06:00:01.813928,429
06:00:01.828933,431
06:00:01.844941,436
06:00:01.845940,444
06:00:01.861467,464
06:00:01.877487,495
06:00:01.877487,523
06:00:01.893494,551
06:00:01.894022,561
06:00:01.909802,562
06:00:01.925802,557
06:00:01.925802,560
06:00:01.941803,557
06:00:01.957620,556
06:00:01.958127,551
06:00:01.973030,549
06:00:01.974038,535
06:00:01.989545,515
06:00:02.005512,499
06:00:02.005512,493
06:00:02.021666,489
06:00:02.037640,478
06:00:02.038042,469
06:00:02.053504,469
06:00:02.053946,463
06:00:02.069652,452
06:00:02.085802,446
06:00:02.085802,450
06:00:02.101648,451
06:00:02.117297,457
06:00:02.117297,457
06:00:02.133032,463
06:00:02.134040,454
06:00:02.149513,442
06:00:02.165664,434
06:00:02.166019,439
06:00:02.181662,440
06:00:02.197492,450
06:00:02.198100,449
06:00:02.213684,454
06:00:02.213684,446
06:00:02.229796,440
06:00:02.245787,433
06:00:02.245787,432
06:00:02.261635,433
06:00:02.277889,442
06:00:02.277889,441
06:00:02.292893,434
06:00:02.293894,418
06:00:02.308900,407
06:00:02.324905,394
06:00:02.325905,393
06:00:02.340911,392
06:00:02.357576,411
06:00:02.358070,430
06:00:02.373489,460
06:00:02.373902,471
06:00:02.389510,481
06:00:02.405514,487
06:00:02.405514,493
06:00:02.421560,494
06:00:02.437760,501
06:00:02.437760,495
06:00:02.453768,498
06:00:02.454119,483
06:00:02.469590,472
06:00:02.485647,461
06:00:02.485647,455
06:00:02.501794,450
06:00:02.516952,457
06:00:02.517957,454
06:00:02.533486,462
06:00:02.549782,452
06:00:02.549958,449
06:00:02.565511,443
06:00:02.565999,446
06:00:02.581639,447
06:00:02.597020,455
06:00:02.597964,453
06:00:02.613486,458
06:00:02.629795,448
06:00:02.629795,444
06:00:02.645785,436
06:00:02.646124,441
06:00:02.661765,441
06:00:02.677348,451
06:00:02.677348,448
06:00:02.693351,457
06:00:02.709359,448
06:00:02.709359,445
06:00:02.725789,441
06:00:02.725789,447
06:00:02.741766,449
06:00:02.757500,457
06:00:02.758159,456
06:00:02.773684,463
06:00:02.789221,451
06:00:02.789221,435
06:00:02.805221,414
06:00:02.805221,405
06:00:02.821229,393
06:00:02.837235,393
06:00:02.837235,392
06:00:02.853241,411
06:00:02.869763,423
06:00:02.869763,439
06:00:02.885781,449
06:00:02.885781,465
06:00:02.901787,471
06:00:02.917790,480
06:00:02.917790,477
06:00:02.933694,478
06:00:02.949793,462
06:00:02.949793,449
06:00:02.965786,436
06:00:02.966120,435
06:00:02.981606,429
06:00:02.997788,432
06:00:02.998137,427
06:00:03.013481,430
06:00:03.029646,420
06:00:03.030001,412
06:00:03.045638,406
06:00:03.045638,413
06:00:03.061631,415
06:00:03.077648,425
06:00:03.077648,424
06:00:03.093659,432
06:00:03.109787,424
06:00:03.109787,420
06:00:03.125604,419
06:00:03.125604,430
06:00:03.141757,435
06:00:03.157639,448
06:00:03.157639,451
06:00:03.173675,462
06:00:03.189783,460
06:00:03.190140,459
06:00:03.205602,459
06:00:03.205602,472
06:00:03.221651,480
06:00:03.237643,495
06:00:03.237643,500
06:00:03.253647,511
06:00:03.269319,506
06:00:03.269820,506
06:00:03.285307,500
06:00:03.285307,497
06:00:03.301697,487
06:00:03.317698,487
06:00:03.317698,486
06:00:03.333703,493
06:00:03.349709,500
06:00:03.349709,516
06:00:03.365731,539
06:00:03.381753,571
06:00:03.381753,595
06:00:03.397635,614
06:00:03.398048,621
06:00:03.413032,628
06:00:03.429756,614
06:00:03.429756,601
06:00:03.445485,589
06:00:03.461788,587
06:00:03.461788,580
06:00:03.477638,578
06:00:03.477978,569
06:00:03.493478,566
06:00:03.509649,545
06:00:03.510014,533
06:00:03.525622,522
06:00:03.541738,522
06:00:03.541738,521
06:00:03.557649,523
06:00:03.557649,520
06:00:03.573388,523
06:00:03.589782,508
06:00:03.589782,498
06:00:03.605751,491
06:00:03.621545,492
06:00:03.621545,489
06:00:03.637780,489
06:00:03.638132,484
06:00:03.653383,482
06:00:03.669781,464
06:00:03.670138,450
06:00:03.685441,440
06:00:03.701382,438
06:00:03.702034,435
06:00:03.717778,433
06:00:03.717778,429
06:00:03.732972,427
06:00:03.749625,411
06:00:03.749625,399
06:00:03.765489,390
06:00:03.781772,392
06:00:03.781772,386
06:00:03.797444,376
06:00:03.797444,363
06:00:03.813451,354
06:00:03.829456,347
06:00:03.829456,345
06:00:03.845465,347
06:00:03.861477,357
06:00:03.861977,375
06:00:03.877006,403
06:00:03.878005,431
06:00:03.893673,447
06:00:03.909737,444
06:00:03.909737,440
06:00:03.925746,437
06:00:03.941552,437
06:00:03.941552,432
06:00:03.957750,431
06:00:03.958094,420
06:00:03.973353,411
06:00:03.989776,394
06:00:03.990120,383
06:00:04.005594,379
06:00:04.021621,384
06:00:04.021963,387
06:00:04.037632,392
06:00:04.037632,398
06:00:04.053636,402
06:00:04.069648,396
06:00:04.069648,391
06:00:04.085619,396
06:00:04.101642,408
06:00:04.101642,419
06:00:04.117771,431
06:00:04.118117,441
06:00:04.133354,450
06:00:04.149628,447
06:00:04.149628,447
06:00:04.165611,455
06:00:04.181688,469
06:00:04.181688,479
06:00:04.197766,490
06:00:04.213509,500
06:00:04.213968,508
06:00:04.229511,505
06:00:04.229511,503
06:00:04.245591,508
06:00:04.261771,516
06:00:04.262274,525
06:00:04.277419,536
06:00:04.293201,540
06:00:04.293201,535
06:00:04.309209,528
06:00:04.309209,520
06:00:04.325213,518
06:00:04.341219,519
06:00:04.341219,527
06:00:04.357223,547
06:00:04.373251,575
06:00:04.373752,603
06:00:04.389773,614
06:00:04.389773,621
06:00:04.405588,631
06:00:04.421771,640
06:00:04.421771,647
06:00:04.437768,647
06:00:04.453351,645
06:00:04.453351,639
06:00:04.469617,621
06:00:04.470019,604
06:00:04.485574,594
06:00:04.501634,587
06:00:04.501634,583
06:00:04.517633,576
06:00:04.533461,570
06:00:04.533947,561
06:00:04.549487,545
06:00:04.549487,531
06:00:04.565294,524
06:00:04.581742,516
06:00:04.581742,512
06:00:04.597766,502
06:00:04.613357,495
06:00:04.613921,482
06:00:04.629585,463
06:00:04.629585,447
06:00:04.645185,440
06:00:04.661768,436
06:00:04.662272,440
06:00:04.677618,439
06:00:04.693648,445
06:00:04.693648,439
06:00:04.709683,428
06:00:04.710024,418
06:00:04.725392,419
06:00:04.741705,418
06:00:04.741705,423
06:00:04.757611,423
06:00:04.773701,428
06:00:04.773701,425
06:00:04.789162,414
06:00:04.789162,394
06:00:04.804789,382
06:00:04.820797,370
06:00:04.821798,371
06:00:04.836805,369
06:00:04.852811,387
06:00:04.853809,404
06:00:04.869424,424
06:00:04.869836,444
06:00:04.885070,467
06:00:04.901096,478
06:00:04.902093,479
06:00:04.917756,477
06:00:04.932971,484
06:00:04.933961,490
06:00:04.949773,490
06:00:04.950139,488
06:00:04.965758,494
06:00:04.981706,496
06:00:04.981706,502
06:00:04.997762,500
06:00:05.013455,505
06:00:05.013961,497
06:00:05.029609,487
06:00:05.045473,476
06:00:05.045957,477
06:00:05.061631,478
06:00:05.062107,480
06:00:05.077480,479
06:00:05.093178,486
06:00:05.093178,479
06:00:05.109364,470
06:00:05.125761,460
06:00:05.125761,464
06:00:05.141936,465
06:00:05.141936,474
06:00:05.157759,475
06:00:05.173653,484
06:00:05.174028,480
06:00:05.189243,475
06:00:05.205546,470
06:00:05.205910,476
06:00:05.221478,477
06:00:05.221478,486
06:00:05.237625,491
06:00:05.253029,504
06:00:05.254037,502
06:00:05.269279,496
06:00:05.285590,493
06:00:05.285590,492
06:00:05.301595,481
06:00:05.301595,476
06:00:05.317659,468
06:00:05.333665,469
06:00:05.333665,467
06:00:05.349670,473
06:00:05.365687,487
06:00:05.365687,515
06:00:05.381716,538
06:00:05.381716,561
06:00:05.397589,572
06:00:05.413575,583
06:00:05.413575,576
06:00:05.429730,563
06:00:05.445608,551
06:00:05.445608,549
06:00:05.461612,546
06:00:05.461983,549
06:00:05.477611,544
06:00:05.493449,546
06:00:05.494046,537
06:00:05.509640,524
06:00:05.525612,517
06:00:05.525612,515
06:00:05.541555,516
06:00:05.541555,523
06:00:05.557610,524
06:00:05.573539,532
06:00:05.573902,528
06:00:05.589322,520
06:00:05.605458,514
06:00:05.605853,517
06:00:05.621752,521
06:00:05.621752,529
06:00:05.637745,531
06:00:05.653646,539
06:00:05.653996,536
06:00:05.669611,528
06:00:05.685755,526
06:00:05.685755,528
06:00:05.701758,532
06:00:05.701758,538
06:00:05.717752,539
06:00:05.733760,542
06:00:05.733760,536
06:00:05.749777,525
06:00:05.765463,519
06:00:05.765965,519
06:00:05.780924,522
06:00:05.780924,515
06:00:05.797248,499
06:00:05.813262,486
06:00:05.814257,471
06:00:05.829260,464
06:00:05.845266,459
06:00:05.845266,460
06:00:05.861271,473
06:00:05.861271,493
06:00:05.877305,514
06:00:05.893033,529
06:00:05.894038,533
06:00:05.909615,524
06:00:05.925752,517
06:00:05.925752,508
06:00:05.941603,503
06:00:05.957727,494
06:00:05.957727,486
06:00:05.973538,471
06:00:05.974033,451
06:00:05.989744,428
06:00:06.005662,417
06:00:06.006019,412
06:00:06.021746,415
06:00:06.037694,415
06:00:06.038012,418
06:00:06.053027,417
06:00:06.054021,410
06:00:06.069746,397
06:00:06.085562,391
06:00:06.085562,387
06:00:06.101449,389
06:00:06.117590,388
06:00:06.117590,390
06:00:06.133441,389
06:00:06.133914,384
06:00:06.149607,372
06:00:06.165611,369
06:00:06.165968,371
06:00:06.181610,377
06:00:06.196954,383
06:00:06.197950,390
06:00:06.212962,397
06:00:06.213955,397
06:00:06.229744,389
06:00:06.245746,387
06:00:06.245746,392
06:00:06.261745,398
06:00:06.277617,403
06:00:06.278118,409
06:00:06.293635,403
06:00:06.293635,390
06:00:06.309307,378
06:00:06.325312,369
06:00:06.325312,365
06:00:06.341317,369
06:00:06.357323,388
06:00:06.357323,415
06:00:06.373339,449
06:00:06.373838,472
06:00:06.389691,487
06:00:06.405601,502
06:00:06.405601,518
06:00:06.421593,531
06:00:06.437339,544
06:00:06.437339,550
06:00:06.453436,558
06:00:06.453436,550
06:00:06.469459,540
06:00:06.485610,532
06:00:06.486002,529
06:00:06.501781,529
06:00:06.517718,532
06:00:06.518085,533
06:00:06.533027,531
06:00:06.534038,520
06:00:06.549658,509
06:00:06.565739,507
06:00:06.565739,509
06:00:06.581738,515
06:00:06.597706,521
06:00:06.597706,526
06:00:06.613020,532
06:00:06.614030,525
06:00:06.629742,515
06:00:06.645738,513
06:00:06.645738,515
06:00:06.661594,522
06:00:06.677579,529
06:00:06.677963,531
06:00:06.693056,535
06:00:06.694063,528
06:00:06.708959,518
06:00:06.725732,515
06:00:06.725732,514
06:00:06.741555,515
06:00:06.757579,517
06:00:06.757579,517
06:00:06.773600,516
06:00:06.789387,509
06:00:06.789387,489
06:00:06.804759,470
06:00:06.805760,453
06:00:06.821765,447
06:00:06.837775,442
06:00:06.837775,448
06:00:06.852781,464
06:00:06.869737,480
06:00:06.870056,493
06:00:06.885743,514
06:00:06.886023,525
06:00:06.901738,537
06:00:06.917701,540
06:00:06.917701,542
06:00:06.933411,537
06:00:06.949605,520
06:00:06.949605,499
06:00:06.965734,487
06:00:06.966103,480
06:00:06.981742,475
06:00:06.997442,469
06:00:06.998029,465
06:00:07.013033,459
06:00:07.029444,448
06:00:07.029444,430
06:00:07.045594,425
06:00:07.045594,423
06:00:07.061554,427
06:00:07.077572,425
06:00:07.078076,427
06:00:07.092959,424
06:00:07.109602,413
06:00:07.109602,399
06:00:07.125735,398
06:00:07.126101,400
06:00:07.141427,408
06:00:07.157696,410
06:00:07.157696,418
06:00:07.173652,419
06:00:07.189734,417
06:00:07.190092,409
06:00:07.205734,409
06:00:07.205734,412
06:00:07.221711,420
06:00:07.237552,423
06:00:07.238028,429
06:00:07.253620,430
06:00:07.269537,427
06:00:07.270039,417
06:00:07.285494,413
06:00:07.285494,400
06:00:07.301501,393
06:00:07.317506,385
06:00:07.317506,385
06:00:07.333510,382
06:00:07.349517,389
06:00:07.349517,395
06:00:07.365523,420
06:00:07.365523,446
06:00:07.381549,469
06:00:07.397068,486
06:00:07.398066,495
06:00:07.413604,498
06:00:07.429583,491
06:00:07.430088,477
06:00:07.445580,474
06:00:07.446075,469
06:00:07.461687,468
06:00:07.477576,459
06:00:07.477977,457
06:00:07.493763,448
06:00:07.509598,438
06:00:07.509598,420
06:00:07.525721,421
06:00:07.525721,420
06:00:07.541705,429
06:00:07.557695,432
06:00:07.557695,441
06:00:07.573618,444
06:00:07.589726,444
06:00:07.589726,435
06:00:07.605581,442
06:00:07.621697,447
06:00:07.621697,460
06:00:07.636865,464
06:00:07.637950,473
06:00:07.653420,473
06:00:07.669579,471
06:00:07.669579,460
06:00:07.685577,465
06:00:07.701043,468
06:00:07.702034,479
06:00:07.717198,480
06:00:07.717198,482
06:00:07.733374,477
06:00:07.749592,472
06:00:07.749592,461
06:00:07.765046,462
06:00:07.781506,463
06:00:07.782007,465
06:00:07.797351,450
06:00:07.797351,441
06:00:07.813360,425
06:00:07.829367,420
06:00:07.829367,414
06:00:07.845372,421
06:00:07.861380,424
06:00:07.861380,440
06:00:07.877397,462
06:00:07.877897,493
06:00:07.893416,516
06:00:07.909422,527
06:00:07.909422,527
06:00:07.925689,533
06:00:07.941696,533
06:00:07.941696,536
06:00:07.957725,531
06:00:07.958057,531
06:00:07.973536,521
06:00:07.989581,508
06:00:07.989581,488
06:00:08.005573,481
06:00:08.021404,473
06:00:08.021404,471
06:00:08.037441,464
06:00:08.037996,462
06:00:08.053010,454
06:00:08.069591,443
06:00:08.069591,428
06:00:08.085589,427
06:00:08.101568,429
06:00:08.101568,433
06:00:08.117718,434
06:00:08.118071,439
06:00:08.133509,437
06:00:08.149719,430
06:00:08.149719,421
06:00:08.165716,425
06:00:08.181693,429
06:00:08.182197,437
06:00:08.197724,439
06:00:08.197724,446
06:00:08.213031,446
06:00:08.229716,439
06:00:08.229716,429
06:00:08.245058,431
06:00:08.261566,435
06:00:08.261566,441
06:00:08.277440,445
06:00:08.277940,445
06:00:08.293469,432
06:00:08.309076,419
06:00:08.309076,404
06:00:08.325477,400
06:00:08.341486,399
06:00:08.341486,406
06:00:08.357489,411
06:00:08.357489,432
06:00:08.373495,455
06:00:08.389534,469
06:00:08.390037,476
06:00:08.405434,488
06:00:08.421689,499
06:00:08.421689,503
06:00:08.437719,501
06:00:08.437719,498
06:00:08.453410,489
06:00:08.469719,470
06:00:08.469719,451
06:00:08.485685,442
06:00:08.501867,436
06:00:08.501867,430
06:00:08.517717,422
06:00:08.533422,415
06:00:08.533869,403
06:00:08.549571,383
06:00:08.549571,364
06:00:08.565557,355
06:00:08.581522,348
06:00:08.582028,345
06:00:08.597572,343
06:00:08.613349,345
06:00:08.613855,348
06:00:08.629583,345
06:00:08.629933,346
06:00:08.645408,357
06:00:08.661342,371
06:00:08.661938,387
06:00:08.677566,401
06:00:08.693589,416
06:00:08.693956,428
06:00:08.709566,428
06:00:08.709566,432
06:00:08.725685,440
06:00:08.741548,452
06:00:08.741548,464
06:00:08.757439,475
06:00:08.773452,487
06:00:08.773452,498
06:00:08.789427,495
06:00:08.789929,484
06:00:08.804797,477
06:00:08.821697,474
06:00:08.821697,472
06:00:08.836702,477
06:00:08.853708,485
06:00:08.853708,502
06:00:08.868713,515
06:00:08.869714,534
06:00:08.885553,554
06:00:08.901713,575
06:00:08.901713,581
06:00:08.917713,584
06:00:08.933404,586
06:00:08.933864,576
06:00:08.949713,552
06:00:08.950081,533
06:00:08.965628,520
06:00:08.981710,515
06:00:08.982061,503
06:00:08.997824,495
06:00:09.013752,490
06:00:09.014039,482
06:00:09.029566,464
06:00:09.029566,454
06:00:09.044957,449
06:00:09.061576,449
06:00:09.061576,441
06:00:09.077573,439
06:00:09.093732,436
06:00:09.093732,436
06:00:09.108893,424
06:00:09.109897,419
06:00:09.125402,417
06:00:09.141706,420
06:00:09.141706,419
06:00:09.157708,421
06:00:09.173579,422
06:00:09.173948,419
06:00:09.189707,406
06:00:09.205673,399
06:00:09.205926,395
06:00:09.221708,399
06:00:09.221708,396
06:00:09.237715,397
06:00:09.253586,396
06:00:09.253586,392
06:00:09.269610,379
06:00:09.285129,375
06:00:09.285629,364
06:00:09.300856,352
06:00:09.301855,338
06:00:09.316860,332
06:00:09.332873,330
06:00:09.333867,335
06:00:09.348877,342
06:00:09.365658,366
06:00:09.365658,393
06:00:09.381550,423
06:00:09.382051,441
06:00:09.397707,455
06:00:09.413031,460
06:00:09.414036,457
06:00:09.429524,440
06:00:09.445669,432
06:00:09.445669,423
06:00:09.460949,424
06:00:09.461949,414
06:00:09.477701,400
06:00:09.493397,388
06:00:09.493397,381
06:00:09.509706,372
06:00:09.525674,374
06:00:09.525674,376
06:00:09.541561,384
06:00:09.541561,386
06:00:09.557554,391
06:00:09.573396,393
06:00:09.573396,392
06:00:09.589402,379
06:00:09.605484,377
06:00:09.605484,376
06:00:09.621567,383
06:00:09.621914,386
06:00:09.637560,391
06:00:09.653395,392
06:00:09.653859,389
06:00:09.669537,377
06:00:09.685432,377
06:00:09.685944,376
06:00:09.701557,385
06:00:09.701557,388
06:00:09.717881,396
06:00:09.733160,399
06:00:09.733160,403
06:00:09.749520,394
06:00:09.765038,399
06:00:09.766038,399
06:00:09.781549,412
06:00:09.782051,409
06:00:09.796875,405
06:00:09.812882,393
06:00:09.813880,391
06:00:09.828887,387
06:00:09.844893,394
06:00:09.845892,399
06:00:09.860897,417
06:00:09.861897,441
06:00:09.876903,476
06:00:09.893432,504
06:00:09.893932,522
06:00:09.908942,521
06:00:09.925552,527
06:00:09.925552,527
06:00:09.941550,534
06:00:09.941896,530
06:00:09.957413,531
06:00:09.973057,523
06:00:09.973057,514
06:00:09.989345,491
06:00:10.005699,486
06:00:10.006031,473
06:00:10.021697,475
06:00:10.037690,469
06:00:10.037912,471
06:00:10.053572,466
06:00:10.053572,462
06:00:10.069515,444
06:00:10.085547,441
06:00:10.085547,436
06:00:10.101465,441
06:00:10.117413,439
06:00:10.117902,445
06:00:10.133395,446
06:00:10.133917,445
06:00:10.149540,431
06:00:10.165414,435
06:00:10.165414,433
06:00:10.181766,443
06:00:10.197695,442
06:00:10.198037,448
06:00:10.213031,446
06:00:10.214037,446
06:00:10.229665,433
06:00:10.245824,435
06:00:10.245824,436
06:00:10.261669,447
06:00:10.277152,450
06:00:10.277152,460
06:00:10.293682,451
06:00:10.294183,441
06:00:10.309070,423
06:00:10.324721,417
06:00:10.325722,411
06:00:10.340727,416
06:00:10.356733,419
06:00:10.357732,443
06:00:10.372740,465
06:00:10.373738,485
06:00:10.389657,485
06:00:10.405560,497
06:00:10.405560,494
06:00:10.421694,500
06:00:10.437687,493
06:00:10.437687,493
06:00:10.453695,482
06:00:10.454039,471
06:00:10.469656,447
06:00:10.485691,438
06:00:10.486046,429
06:00:10.501691,430
06:00:10.516810,423
06:00:10.517818,423
06:00:10.532937,415
06:00:10.533822,409
06:00:10.549663,391
06:00:10.565038,388
06:00:10.565038,383
06:00:10.581544,387
06:00:10.597545,386
06:00:10.597545,388
06:00:10.613553,384
06:00:10.613553,380
06:00:10.629003,366
06:00:10.645555,365
06:00:10.645917,362
06:00:10.661553,370
06:00:10.677693,373
06:00:10.677693,378
06:00:10.693563,378
06:00:10.693563,381
06:00:10.708968,373
06:00:10.725687,376
06:00:10.725687,377
06:00:10.741690,392
06:00:10.757763,404
06:00:10.757976,421
06:00:10.772985,434
06:00:10.773985,446
06:00:10.789507,440
06:00:10.805398,439
06:00:10.805398,433
06:00:10.821403,440
06:00:10.837544,446
06:00:10.837918,462
06:00:10.853159,488
06:00:10.853159,517
06:00:10.869161,538
06:00:10.885681,569
06:00:10.885681,586
06:00:10.901211,606
06:00:10.917505,614
06:00:10.917505,619
06:00:10.933034,617
06:00:10.949553,608
06:00:10.949553,591
06:00:10.965691,587
06:00:10.966049,579
06:00:10.981680,581
06:00:10.997787,577
06:00:10.998014,574
06:00:11.013264,569
06:00:11.029687,558
06:00:11.029977,542
06:00:11.045680,542
06:00:11.045680,535
06:00:11.061684,539
06:00:11.077854,535
06:00:11.077854,535
06:00:11.093614,531
06:00:11.109539,523
06:00:11.109539,511
06:00:11.125542,509
06:00:11.125900,506
06:00:11.141537,512
06:00:11.157394,511
06:00:11.157394,517
06:00:11.173405,518
06:00:11.189424,513
06:00:11.189824,505
06:00:11.205447,507
06:00:11.205447,508
06:00:11.221545,516
06:00:11.237528,517
06:00:11.237528,520
06:00:11.253244,516
06:00:11.268927,507
06:00:11.269926,497
06:00:11.285442,492
06:00:11.285943,475
06:00:11.300950,464
06:00:11.316955,451
06:00:11.317956,446
06:00:11.332964,444
06:00:11.348969,448
06:00:11.348969,456
06:00:11.364978,481
06:00:11.365973,507
06:00:11.381491,534
06:00:11.397312,549
06:00:11.397776,558
06:00:11.412792,558
06:00:11.429531,549
06:00:11.429937,532
06:00:11.445273,524
06:00:11.445972,516
06:00:11.461832,512
06:00:11.477671,506
06:00:11.478014,503
06:00:11.493566,499
06:00:11.509677,489
06:00:11.509677,474
06:00:11.525678,467
06:00:11.525678,464
06:00:11.541680,466
06:00:11.557061,466
06:00:11.558068,466
06:00:11.573583,465
06:00:11.589536,457
06:00:11.589536,442
06:00:11.605041,438
06:00:11.605041,438
06:00:11.621617,438
06:00:11.637508,438
06:00:11.637868,439
06:00:11.652876,440
06:00:11.669395,434
06:00:11.669395,422
06:00:11.685391,420
06:00:11.685772,420
06:00:11.701540,423
06:00:11.717176,424
06:00:11.717176,428
06:00:11.733152,429
06:00:11.749677,423
06:00:11.749677,418
06:00:11.765484,422
06:00:11.765484,432
06:00:11.780997,435
06:00:11.797518,430
06:00:11.798019,424
06:00:11.813034,419
06:00:11.829039,419
06:00:11.830040,424
06:00:11.845046,434
06:00:11.846045,451
06:00:11.861050,475
06:00:11.877056,507
06:00:11.877056,535
06:00:11.893577,557
06:00:11.909493,566
06:00:11.909493,568
06:00:11.925530,573
06:00:11.941528,578
06:00:11.941528,581
06:00:11.957519,582
06:00:11.957927,583
06:00:11.973365,579
06:00:11.989389,569
06:00:11.989894,555
06:00:12.005536,553
06:00:12.021649,550
06:00:12.021990,553
06:00:12.037180,552
06:00:12.038123,553
06:00:12.053029,552
06:00:12.069674,543
06:00:12.069674,531
06:00:12.085672,531
06:00:12.101364,530
06:00:12.101364,536
06:00:12.117364,537
06:00:12.117364,543
06:00:12.133031,542
06:00:12.149529,533
06:00:12.149888,522
06:00:12.165535,523
06:00:12.181535,521
06:00:12.181535,524
06:00:12.197508,522
06:00:12.198012,524
06:00:12.213375,520
06:00:12.229537,508
06:00:12.229537,493
06:00:12.245670,490
06:00:12.261488,486
06:00:12.261488,487
06:00:12.277673,484
06:00:12.277673,476
06:00:12.293691,459
06:00:12.308993,437
06:00:12.308993,422
06:00:12.324999,410
06:00:12.341007,408
06:00:12.342005,409
06:00:12.357012,419
06:00:12.358010,442
06:00:12.373017,467
06:00:12.389533,480
06:00:12.390032,488
06:00:12.405522,497
06:00:12.421549,508
06:00:12.421549,509
06:00:12.437512,510
06:00:12.437914,506
06:00:12.453231,501
06:00:12.469533,480
06:00:12.469890,465
06:00:12.485532,454
06:00:12.501564,453
06:00:12.501564,445
06:00:12.517510,445
06:00:12.517510,442
06:00:12.533569,443
06:00:12.549666,428
06:00:12.549666,421
06:00:12.565626,418
06:00:12.581053,423
06:00:12.582047,423
06:00:12.597635,428
06:00:12.598028,427
06:00:12.613592,428
06:00:12.629644,417
06:00:12.629644,413
06:00:12.645665,412
06:00:12.661625,420
06:00:12.661625,420
06:00:12.676737,426
06:00:12.677684,427
06:00:12.693549,430
06:00:12.709503,418
06:00:12.709503,413
06:00:12.725219,409
06:00:12.741357,417
06:00:12.741995,419
06:00:12.757035,429
06:00:12.773240,433
06:00:12.773240,443
06:00:12.789319,434
06:00:12.789820,425
06:00:12.805425,413
06:00:12.821429,411
06:00:12.821429,410
06:00:12.837435,417
06:00:12.853440,434
06:00:12.853440,468
06:00:12.869446,493
06:00:12.869446,518
06:00:12.885456,542
06:00:12.901486,569
06:00:12.901983,585
06:00:12.917664,600
06:00:12.933531,604
06:00:12.933531,611
06:00:12.949675,597
06:00:12.949675,591
06:00:12.965377,586
06:00:12.981576,588
06:00:12.981576,586
06:00:12.997522,587
06:00:13.013187,583
06:00:13.013187,584
06:00:13.029379,566
06:00:13.029379,559
06:00:13.045518,552
06:00:13.061504,555
06:00:13.061504,552
06:00:13.077266,554
06:00:13.093543,550
06:00:13.093543,551
06:00:13.109659,537
06:00:13.109659,533
06:00:13.125623,529
06:00:13.141576,535
06:00:13.141960,535
06:00:13.157656,541
06:00:13.173541,541
06:00:13.173932,545
06:00:13.189656,533
06:00:13.189656,532
06:00:13.205657,529
06:00:13.220886,534
06:00:13.221949,533
06:00:13.237504,535
06:00:13.253271,531
06:00:13.253796,529
06:00:13.269286,509
06:00:13.269286,503
06:00:13.285303,488
06:00:13.301436,474
06:00:13.301937,455
06:00:13.317349,447
06:00:13.333355,437
06:00:13.333355,440
06:00:13.349361,439
06:00:13.349361,454
06:00:13.365373,472
06:00:13.381381,503
06:00:13.381381,516
06:00:13.397630,533
06:00:13.413368,538
06:00:13.413368,540
06:00:13.429652,521
06:00:13.430004,511
06:00:13.445358,498
06:00:13.461623,494
06:00:13.462001,482
06:00:13.477408,477
06:00:13.493571,468
06:00:13.493924,459
06:00:13.509654,437
06:00:13.509654,427
06:00:13.525499,417
06:00:13.541492,419
06:00:13.541492,409
06:00:13.557368,410
06:00:13.573345,404
06:00:13.573723,406
06:00:13.589588,390
06:00:13.589868,386
06:00:13.605498,381
06:00:13.621479,387
06:00:13.621869,386
06:00:13.637507,392
06:00:13.653530,393
06:00:13.653877,393
06:00:13.669501,381
06:00:13.685616,380
06:00:13.685616,378
06:00:13.701257,386
06:00:13.701798,388
06:00:13.717791,396
06:00:13.733030,400
06:00:13.734034,406
06:00:13.749648,396
06:00:13.765534,398
06:00:13.765534,400
06:00:13.781513,414
06:00:13.781513,411
06:00:13.797352,408
06:00:13.812872,396
06:00:13.813873,395
06:00:13.828878,393
06:00:13.844887,403
06:00:13.845883,411
06:00:13.860891,441
06:00:13.861889,470
06:00:13.876899,503
06:00:13.893166,528
06:00:13.893670,545
06:00:13.909363,540
06:00:13.925508,542
06:00:13.925508,541
06:00:13.941628,548
06:00:13.941628,543
06:00:13.957650,547
06:00:13.973576,537
06:00:13.973946,525
06:00:13.989640,506
06:00:14.005612,499
06:00:14.005612,494
06:00:14.021126,498
06:00:14.022121,498
06:00:14.037637,502
06:00:14.053052,503
06:00:14.053052,501
06:00:14.069504,487
06:00:14.085544,484
06:00:14.085544,479
06:00:14.101563,483
06:00:14.101876,482
06:00:14.117586,487
06:00:14.133564,485
06:00:14.133917,483
06:00:14.149496,470
06:00:14.165608,469
06:00:14.165990,465
06:00:14.181496,472
06:00:14.181938,473
06:00:14.197734,479
06:00:14.213562,481
06:00:14.213562,478
06:00:14.229624,465
06:00:14.245462,464
06:00:14.246145,457
06:00:14.261498,461
06:00:14.261498,458
06:00:14.277191,461
06:00:14.293205,447
06:00:14.293705,432
06:00:14.309370,412
06:00:14.325377,402
06:00:14.325377,396
06:00:14.341383,400
06:00:14.341383,407
06:00:14.357388,432
06:00:14.373394,458
06:00:14.373394,480
06:00:14.389494,484
06:00:14.405481,493
06:00:14.405481,495
06:00:14.421703,501
06:00:14.421892,498
06:00:14.437503,497
06:00:14.453515,492
06:00:14.453954,485
06:00:14.469344,465
06:00:14.485479,458
06:00:14.485479,448
06:00:14.501725,448
06:00:14.517639,444
06:00:14.517916,444
06:00:14.533032,441
06:00:14.533032,434
06:00:14.549036,420
06:00:14.565159,415
06:00:14.565159,410
06:00:14.581642,409
06:00:14.597638,407
06:00:14.597638,407
06:00:14.613549,404
06:00:14.613926,399
06:00:14.629655,385
06:00:14.645611,379
06:00:14.645611,380
06:00:14.661639,386
06:00:14.677349,392
06:00:14.677349,399
06:00:14.693172,405
06:00:14.693693,407
06:00:14.709330,403
06:00:14.724773,407
06:00:14.725779,410
06:00:14.741502,417
06:00:14.757497,425
06:00:14.757497,435
06:00:14.773504,442
06:00:14.773504,445
06:00:14.789516,435
06:00:14.805398,423
06:00:14.805899,414
06:00:14.820914,411
06:00:14.836919,416
06:00:14.837919,428
06:00:14.852927,454
06:00:14.853925,480
06:00:14.868931,497
06:00:14.885437,516
06:00:14.885437,534
06:00:14.901342,549
06:00:14.917489,559
06:00:14.917489,562
06:00:14.933172,562
06:00:14.933172,553
06:00:14.949483,533
06:00:14.965669,520
06:00:14.965669,513
06:00:14.981476,509
06:00:14.997494,508
06:00:14.997823,502
06:00:15.013033,498
06:00:15.013033,487
06:00:15.029604,471
06:00:15.045634,464
06:00:15.045634,460
06:00:15.061633,460
06:00:15.077104,463
06:00:15.077104,461
06:00:15.093522,462
06:00:15.093886,455
06:00:15.109513,449
06:00:15.125631,445
06:00:15.125986,447
06:00:15.141632,451
06:00:15.157449,458
06:00:15.157449,458
06:00:15.173551,462
06:00:15.173551,453
06:00:15.189476,446
06:00:15.205626,443
06:00:15.205626,444
06:00:15.221606,445
06:00:15.237622,447
06:00:15.237622,449
06:00:15.253630,455
06:00:15.253630,448
06:00:15.268888,442
06:00:15.285218,438
06:00:15.285218,429
06:00:15.301232,416
06:00:15.316759,406
06:00:15.317760,396
06:00:15.332768,395
06:00:15.333765,394
06:00:15.348777,400
06:00:15.364781,419
06:00:15.365776,440
06:00:15.380784,459
06:00:15.396790,477
06:00:15.397787,481
06:00:15.413528,486
06:00:15.429446,474
06:00:15.429919,462
06:00:15.445629,453
06:00:15.446013,450
06:00:15.461479,448
06:00:15.477622,449
06:00:15.477971,442
06:00:15.493208,440
06:00:15.509598,425
06:00:15.510106,412
06:00:15.525477,402
06:00:15.525930,402
06:00:15.541482,401
06:00:15.557331,402
06:00:15.557331,400
06:00:15.573070,402
06:00:15.589471,393
06:00:15.589471,387
06:00:15.605492,383
06:00:15.605492,388
06:00:15.621494,391
06:00:15.637494,395
06:00:15.637883,395
06:00:15.653028,398
06:00:15.669596,391
06:00:15.669596,384
06:00:15.685621,380
06:00:15.685621,384
06:00:15.701623,389
06:00:15.717477,391
06:00:15.717477,392
06:00:15.733179,396
06:00:15.749193,385
06:00:15.749193,381
06:00:15.765178,377
06:00:15.765178,383
06:00:15.781225,383
06:00:15.797230,378
06:00:15.797230,363
06:00:15.813259,354
06:00:15.828802,345
06:00:15.829802,349
06:00:15.844813,353
06:00:15.845808,371
06:00:15.860818,396
06:00:15.877486,428
06:00:15.877486,455
06:00:15.893032,482
06:00:15.909442,490
06:00:15.909949,493
06:00:15.925620,497
06:00:15.925985,506
06:00:15.941621,512
06:00:15.957616,514
06:00:15.957944,510
06:00:15.973200,509
06:00:15.989438,494
06:00:15.989438,483
06:00:16.005615,473
06:00:16.005615,472
06:00:16.021620,469
06:00:16.037428,470
06:00:16.037428,469
06:00:16.053649,471
06:00:16.069474,463
06:00:16.069474,457
06:00:16.085482,456
06:00:16.085850,463
06:00:16.101486,470
06:00:16.117339,475
06:00:16.117339,476
06:00:16.133028,482
06:00:16.149602,475
06:00:16.149957,471
06:00:16.165435,470
06:00:16.165435,476
06:00:16.181622,479
06:00:16.197585,487
06:00:16.197585,483
06:00:16.213551,487
06:00:16.229617,477
06:00:16.229617,470
06:00:16.245618,466
06:00:16.245973,471
06:00:16.261600,473
06:00:16.276978,482
06:00:16.277979,475
06:00:16.292985,465
06:00:16.309264,445
06:00:16.309769,433
06:00:16.325290,422
06:00:16.341295,424
06:00:16.341295,422
06:00:16.357301,439
06:00:16.357301,456
06:00:16.373308,484
06:00:16.389451,496
06:00:16.389451,505
06:00:16.405241,508
06:00:16.420682,516
06:00:16.421705,515
06:00:16.437480,517
06:00:16.437764,512
06:00:16.453598,511
06:00:16.469613,491
06:00:16.469613,480
06:00:16.485466,469
06:00:16.501469,466
06:00:16.501883,461
06:00:16.517605,459
06:00:16.518111,453
06:00:16.532935,454
06:00:16.549613,437
06:00:16.549613,427
06:00:16.565614,420
06:00:16.581607,422
06:00:16.581607,422
06:00:16.597588,427
06:00:16.597588,427
06:00:16.613229,431
06:00:16.629462,416
06:00:16.629462,411
06:00:16.645445,406
06:00:16.661547,412
06:00:16.661547,411
06:00:16.677463,416
06:00:16.677463,415
06:00:16.693023,420
06:00:16.709611,407
06:00:16.709611,401
06:00:16.725522,395
06:00:16.741553,400
06:00:16.741553,400
06:00:16.757575,408
06:00:16.757933,408
06:00:16.772941,416
06:00:16.788947,404
06:00:16.788947,394
06:00:16.804954,376
06:00:16.821484,372
06:00:16.821484,368
06:00:16.836683,374
06:00:16.837676,386
06:00:16.852764,417
06:00:16.868692,435
06:00:16.869687,457
06:00:16.884751,472
06:00:16.901698,490
06:00:16.901698,499
06:00:16.917534,508
06:00:16.917910,507
06:00:16.933036,509
06:00:16.949609,492
06:00:16.949609,484
06:00:16.965624,477
06:00:16.981609,483
06:00:16.981609,477
06:00:16.997518,476
06:00:16.997518,470
06:00:17.013543,468
06:00:17.029459,451
06:00:17.029459,437
06:00:17.045312,427
06:00:17.060905,429
06:00:17.060905,429
06:00:17.077070,436
06:00:17.077070,437
06:00:17.093189,445
06:00:17.109463,435
06:00:17.109807,436
06:00:17.125321,438
06:00:17.141570,451
06:00:17.141570,455
06:00:17.157403,464
06:00:17.173523,468
06:00:17.173764,474
06:00:17.189455,467
06:00:17.189988,462
06:00:17.205598,462
06:00:17.221573,469
06:00:17.222077,474
06:00:17.237568,484
06:00:17.253202,488
06:00:17.253720,494
06:00:17.269204,482
06:00:17.269204,479
06:00:17.285505,469
06:00:17.301149,459
06:00:17.301149,447
06:00:17.317335,438
06:00:17.332853,430
06:00:17.333854,431
06:00:17.348860,429
06:00:17.349858,439
06:00:17.364867,457
06:00:17.380874,482
06:00:17.381868,501
06:00:17.397296,514
06:00:17.413534,518
06:00:17.414036,520
06:00:17.429602,503
06:00:17.429947,493
06:00:17.445454,485
06:00:17.461606,484
06:00:17.461606,481
06:00:17.477568,482
06:00:17.493576,478
06:00:17.493576,477
06:00:17.509589,459
06:00:17.509860,450
06:00:17.525602,445
06:00:17.541419,448
06:00:17.542093,449
06:00:17.557571,452
06:00:17.573167,452
06:00:17.573675,454
06:00:17.588872,440
06:00:17.588872,434
06:00:17.605301,432
06:00:17.621465,436
06:00:17.621866,439
06:00:17.637445,443
06:00:17.653167,448
06:00:17.653677,447
06:00:17.669470,435
06:00:17.669470,430
06:00:17.685459,430
06:00:17.701448,437
06:00:17.701448,437
06:00:17.717583,438
06:00:17.733190,440
06:00:17.733190,440
06:00:17.749603,430
06:00:17.749960,426
06:00:17.765559,427
06:00:17.780901,436
06:00:17.780901,433
06:00:17.797072,424
06:00:17.813590,410
06:00:17.814097,402
06:00:17.829082,397
06:00:17.829082,399
06:00:17.845089,402
06:00:17.861094,420
06:00:17.861094,445
06:00:17.877100,473
06:00:17.892955,496
06:00:17.892955,514
06:00:17.909583,513
06:00:17.909931,510
06:00:17.925435,513
06:00:17.941547,511
06:00:17.941547,511
06:00:17.957445,508
06:00:17.973516,508
06:00:17.973869,498
06:00:17.989581,481
06:00:17.989581,466
06:00:18.005447,462
06:00:18.021560,459
06:00:18.022065,457
06:00:18.037600,453
06:00:18.053504,455
06:00:18.053504,449
06:00:18.069596,439
06:00:18.085413,430
06:00:18.085701,433
06:00:18.101555,436
06:00:18.101922,445
06:00:18.117300,449
06:00:18.133055,460
06:00:18.133725,460
06:00:18.149445,459
06:00:18.165460,457
06:00:18.165809,468
06:00:18.181408,478
06:00:18.181737,491
06:00:18.197308,498
06:00:18.213472,510
06:00:18.213472,512
06:00:18.229591,514
06:00:18.245285,510
06:00:18.245285,519
06:00:18.261559,524
06:00:18.261917,539
06:00:18.277584,547
06:00:18.293590,548
06:00:18.293590,540
06:00:18.309630,532
06:00:18.325155,527
06:00:18.325155,530
06:00:18.341055,536
06:00:18.341055,548
06:00:18.357439,569
06:00:18.373031,601
06:00:18.373031,623
06:00:18.389453,631
06:00:18.405432,633
06:00:18.405432,636
06:00:18.421436,635
06:00:18.421850,630
06:00:18.437446,619
06:00:18.453409,609
06:00:18.453409,591
06:00:18.469368,564
06:00:18.485373,543
06:00:18.485373,525
06:00:18.501092,501
06:00:18.501092,480
06:00:18.517382,467
06:00:18.533115,463
06:00:18.533115,459
06:00:18.549357,458
06:00:18.565364,460
06:00:18.565364,467
06:00:18.581372,474
06:00:18.581372,491
06:00:18.597376,510
06:00:18.613049,532
06:00:18.613730,539
06:00:18.629445,536
06:00:18.645387,538
06:00:18.645387,539
06:00:18.661467,545
06:00:18.661467,543
06:00:18.677450,540
06:00:18.693033,541
06:00:18.693033,530
06:00:18.709212,515
06:00:18.725403,504
06:00:18.725403,499
06:00:18.741598,497
06:00:18.741598,498
06:00:18.757586,494
06:00:18.773594,496
06:00:18.773594,489
06:00:18.788692,474
06:00:18.805701,451
06:00:18.805701,435
06:00:18.821337,422
06:00:18.821837,417
06:00:18.836855,415
06:00:18.852861,435
06:00:18.853861,450
06:00:18.868867,460
06:00:18.885277,469
06:00:18.885277,478
06:00:18.901554,483
06:00:18.901554,487
06:00:18.917451,484
06:00:18.933052,482
06:00:18.933686,468
06:00:18.949287,451
06:00:18.965429,437
06:00:18.965429,428
06:00:18.981537,420
06:00:18.997434,417
06:00:18.997434,410
06:00:19.013497,409
06:00:19.013497,398
06:00:19.029583,385
06:00:19.045399,375
06:00:19.045960,376
06:00:19.061580,375
06:00:19.077580,378
06:00:19.077580,378
06:00:19.093588,386
06:00:19.093868,388
06:00:19.109605,388
06:00:19.125220,390
06:00:19.125787,402
06:00:19.141582,414
06:00:19.157581,429
06:00:19.157944,441
06:00:19.172810,456
06:00:19.173818,460
06:00:19.189580,460
06:00:19.205419,461
06:00:19.205419,470
06:00:19.221289,477
06:00:19.237427,491
06:00:19.237427,499
06:00:19.253344,512
06:00:19.253344,513
06:00:19.269026,510
06:00:19.284976,507
06:00:19.284976,505
06:00:19.300813,493
06:00:19.317604,488
06:00:19.317604,485
06:00:19.333121,491
06:00:19.333121,494
06:00:19.349128,507
06:00:19.365135,528
06:00:19.365135,560
06:00:19.381410,586
06:00:19.397514,608
06:00:19.397514,615
06:00:19.413434,623
06:00:19.413778,612
06:00:19.429578,596
06:00:19.445547,582
06:00:19.445950,580
06:00:19.461578,574
06:00:19.477428,575
06:00:19.477428,565
06:00:19.493481,563
06:00:19.493481,547
06:00:19.509265,537
06:00:19.525269,525
06:00:19.525734,523
06:00:19.541438,516
06:00:19.557292,521
06:00:19.557292,514
06:00:19.573449,519
06:00:19.573818,507
06:00:19.588859,501
06:00:19.605538,491
06:00:19.605903,493
06:00:19.621723,491
06:00:19.637403,499
06:00:19.637403,495
06:00:19.653458,499
06:00:19.653458,489
06:00:19.669544,485
06:00:19.685537,479
06:00:19.685537,483
06:00:19.701573,482
06:00:19.717565,488
06:00:19.717565,486
06:00:19.733591,490
06:00:19.733866,478
06:00:19.749359,474
06:00:19.765075,469
06:00:19.765075,477
06:00:19.781133,481
06:00:19.797138,479
06:00:19.797138,461
06:00:19.813144,453
06:00:19.813144,441
06:00:19.829175,441
06:00:19.844686,439
06:00:19.845685,446
06:00:19.860692,460
06:00:19.876696,492
06:00:19.877696,511
06:00:19.893176,535
06:00:19.909417,533
06:00:19.909417,532
06:00:19.925256,526
06:00:19.925762,527
06:00:19.941284,523
06:00:19.957436,523
06:00:19.957773,511
06:00:19.973036,508
06:00:19.988740,489
06:00:19.989745,477
06:00:20.005419,463
06:00:20.005419,460
06:00:20.021750,453
06:00:20.037564,454
06:00:20.037564,449
06:00:20.053368,449
06:00:20.069539,434
06:00:20.069539,427
06:00:20.085180,419
06:00:20.085180,424
06:00:20.101569,426
06:00:20.117566,434
06:00:20.117566,436
06:00:20.133032,444
06:00:20.149423,438
06:00:20.149727,439
06:00:20.165288,439
06:00:20.165288,451
06:00:20.181432,458
06:00:20.197429,471
06:00:20.197429,477
06:00:20.213032,490
06:00:20.229539,488
06:00:20.230043,491
06:00:20.245567,491
06:00:20.245914,505
06:00:20.261416,513
06:00:20.277580,522
06:00:20.277580,527
06:00:20.293585,526
06:00:20.309591,513
06:00:20.309591,508
06:00:20.325309,502
06:00:20.325810,507
06:00:20.340828,509
06:00:20.356834,521
06:00:20.357834,539
06:00:20.372841,570
06:00:20.388846,586
06:00:20.389846,596
06:00:20.404852,601
06:00:20.404852,611
06:00:20.421367,612
06:00:20.437557,616
06:00:20.437557,612
06:00:20.453031,609
06:00:20.469535,591
06:00:20.469535,575
06:00:20.485688,559
06:00:20.485688,556
06:00:20.501418,546
06:00:20.516846,542
06:00:20.517842,534
06:00:20.533447,530
06:00:20.549407,513
06:00:20.549407,499
06:00:20.565414,488
06:00:20.566037,489
06:00:20.581562,489
06:00:20.597560,492
06:00:20.597929,490
06:00:20.613426,493
06:00:20.629549,481
06:00:20.630046,472
06:00:20.645560,467
06:00:20.645560,472
06:00:20.661413,474
06:00:20.677553,481
06:00:20.677553,481
06:00:20.693579,483
06:00:20.709378,474
06:00:20.709378,466
06:00:20.725560,459
06:00:20.740515,462
06:00:20.741607,465
06:00:20.757543,469
06:00:20.757791,467
06:00:20.773136,471
06:00:20.789219,460
06:00:20.789219,444
06:00:20.805224,425
06:00:20.821238,417
06:00:20.821737,413
06:00:20.837084,414
06:00:20.837084,424
06:00:20.853091,449
06:00:20.869096,463
06:00:20.869096,477
06:00:20.885410,487
06:00:20.901556,502
06:00:20.901556,512
06:00:20.917407,518
06:00:20.917859,515
06:00:20.933548,514
06:00:20.949314,495
06:00:20.949314,479
06:00:20.965555,466
06:00:20.981559,460
06:00:20.981902,454
06:00:20.997549,449
06:00:20.997549,441
06:00:21.013033,436
06:00:21.029581,420
06:00:21.030084,406
06:00:21.045410,400
06:00:21.060605,402
06:00:21.061599,406
06:00:21.077264,410
06:00:21.077792,410
06:00:21.093139,414
06:00:21.109273,404
06:00:21.109273,399
06:00:21.125413,398
06:00:21.141275,407
06:00:21.141275,413
06:00:21.157549,421
06:00:21.157549,428
06:00:21.172668,438
06:00:21.189552,433
06:00:21.189552,433
06:00:21.205555,437
06:00:21.221552,449
06:00:21.221552,457
06:00:21.237406,467
06:00:21.237406,476
06:00:21.253177,485
06:00:21.269061,480
06:00:21.269061,483
06:00:21.285066,483
06:00:21.301073,480
06:00:21.301073,473
06:00:21.317080,471
06:00:21.317080,472
06:00:21.333612,477
06:00:21.349623,485
06:00:21.349623,495
06:00:21.364631,518
06:00:21.380638,548
06:00:21.381635,575
06:00:21.397398,593
06:00:21.397826,604
06:00:21.413126,609
06:00:21.429418,596
06:00:21.429418,584
06:00:21.445323,577
06:00:21.461548,572
06:00:21.461548,564
06:00:21.477543,558
06:00:21.493450,550
06:00:21.493450,543
06:00:21.509552,523
06:00:21.509552,508
06:00:21.525524,501
06:00:21.541548,498
06:00:21.541548,500
06:00:21.557344,496
06:00:21.572787,496
06:00:21.573787,494
06:00:21.589430,482
06:00:21.589775,474
06:00:21.605401,472
06:00:21.621622,472
06:00:21.621622,473
06:00:21.637248,474
06:00:21.653170,476
06:00:21.653669,475
06:00:21.669407,463
06:00:21.669407,454
06:00:21.685232,454
06:00:21.701415,454
06:00:21.701415,459
06:00:21.717394,459
06:00:21.733406,460
06:00:21.733909,457
06:00:21.748829,443
06:00:21.749836,432
06:00:21.765407,430
06:00:21.781330,431
06:00:21.781330,425
06:00:21.797334,410
06:00:21.813340,395
06:00:21.813340,381
06:00:21.829410,373
06:00:21.829911,371
06:00:21.845440,374
06:00:21.861443,388
06:00:21.861443,414
06:00:21.877452,437
06:00:21.893454,457
06:00:21.893454,469
06:00:21.909546,467
06:00:21.909906,463
06:00:21.925543,465
06:00:21.941400,463
06:00:21.941757,463
06:00:21.957405,457
06:00:21.973031,455
06:00:21.973031,443
06:00:21.989267,423
06:00:21.989634,407
06:00:22.005408,400
06:00:22.021392,394
06:00:22.021392,394
06:00:22.037385,390
06:00:22.053053,391
06:00:22.053605,383
06:00:22.069519,368
06:00:22.069882,357
06:00:22.085406,356
06:00:22.101408,357
06:00:22.101408,363
06:00:22.117395,365
06:00:22.133245,373
06:00:22.133736,369
06:00:22.149394,362
06:00:22.149896,355
06:00:22.165537,358
06:00:22.181548,361
06:00:22.181548,370
06:00:22.197360,373
06:00:22.213166,381
06:00:22.213731,380
06:00:22.229541,374
06:00:22.229901,369
06:00:22.245511,378
06:00:22.261540,387
06:00:22.261908,401
06:00:22.276918,412
06:00:22.292921,419
06:00:22.292921,411
06:00:22.309030,405
06:00:22.309030,399
06:00:22.325214,402
06:00:22.341402,405
06:00:22.341402,415
06:00:22.357410,432
06:00:22.373411,464
06:00:22.373411,486
06:00:22.389508,499
06:00:22.405507,509
06:00:22.405507,526
06:00:22.421531,538
06:00:22.421883,553
06:00:22.437584,558
06:00:22.453461,568
06:00:22.453831,560
06:00:22.469538,547
06:00:22.485395,534
06:00:22.485696,531
06:00:22.501414,526
06:00:22.501414,528
06:00:22.517383,524
06:00:22.533055,528
06:00:22.533617,517
06:00:22.549402,506
06:00:22.565255,488
06:00:22.565255,485
06:00:22.581359,482
06:00:22.581359,487
06:00:22.597382,486
06:00:22.612943,493
06:00:22.612943,486
06:00:22.629388,477
06:00:22.645531,467
06:00:22.645531,469
06:00:22.661386,468
06:00:22.661386,476
06:00:22.677500,476
06:00:22.693032,483
06:00:22.693032,477
06:00:22.709254,465
06:00:22.725555,452
06:00:22.725555,453
06:00:22.741499,452
06:00:22.741897,459
06:00:22.757317,459
06:00:22.773325,465
06:00:22.773325,458
06:00:22.789104,444
06:00:22.804630,421
06:00:22.805630,407
06:00:22.820641,394
06:00:22.821636,393
06:00:22.837165,394
06:00:22.853180,417
06:00:22.853180,434
06:00:22.869186,449
06:00:22.885194,455
06:00:22.885194,467
06:00:22.901432,475
06:00:22.901843,480
06:00:22.917052,477
06:00:22.933052,481
06:00:22.933668,469
06:00:22.949250,457
06:00:22.965401,444
06:00:22.965745,440
06:00:22.981224,433
06:00:22.981859,435
06:00:22.997387,429
06:00:23.013031,430
06:00:23.013031,417
06:00:23.029531,402
06:00:23.045501,388
06:00:23.045501,386
06:00:23.061501,383
06:00:23.061887,387
06:00:23.077042,385
06:00:23.093402,390
06:00:23.093755,382
06:00:23.109532,373
06:00:23.125669,366
06:00:23.125669,369
06:00:23.140999,370
06:00:23.140999,379
06:00:23.157375,379
06:00:23.173396,388
06:00:23.173396,381
06:00:23.189393,376
06:00:23.205388,369
06:00:23.205388,375
06:00:23.221573,377
06:00:23.221791,390
06:00:23.237391,394
06:00:23.253407,406
06:00:23.253407,404
06:00:23.269035,404
06:00:23.284630,403
06:00:23.285630,404
06:00:23.301296,396
06:00:23.317303,397
06:00:23.317303,395
06:00:23.333324,405
06:00:23.333826,411
06:00:23.349345,425
06:00:23.365351,445
06:00:23.365351,479
06:00:23.381355,505
06:00:23.397362,535
06:00:23.397362,542
06:00:23.413031,555
06:00:23.413676,548
06:00:23.429377,536
06:00:23.445370,521
06:00:23.445690,521
06:00:23.461370,514
06:00:23.477441,517
06:00:23.477753,511
06:00:23.493047,513
06:00:23.493606,500
06:00:23.509238,487
06:00:23.525394,472
06:00:23.525898,472
06:00:23.541489,467
06:00:23.557532,475
06:00:23.557532,469
06:00:23.573228,475
06:00:23.573804,465
06:00:23.589524,455
06:00:23.605493,446
06:00:23.605493,451
06:00:23.621027,451
06:00:23.637522,459
06:00:23.637875,458
06:00:23.653643,466
06:00:23.653643,459
06:00:23.669524,451
06:00:23.685487,443
06:00:23.685487,448
06:00:23.701493,445
06:00:23.717522,450
06:00:23.717522,447
06:00:23.733537,452
06:00:23.733537,442
06:00:23.749520,433
06:00:23.765280,425
06:00:23.765280,433
06:00:23.780615,436
06:00:23.797052,436
06:00:23.797052,423
06:00:23.813057,417
06:00:23.813057,407
06:00:23.829069,408
06:00:23.844601,406
06:00:23.845599,413
06:00:23.860606,426
06:00:23.876616,457
06:00:23.877612,475
06:00:23.893172,500
06:00:23.893753,498
06:00:23.909633,498
06:00:23.925484,490
06:00:23.925864,493
06:00:23.941088,485
06:00:23.957512,489
06:00:23.957855,476
06:00:23.973170,473
06:00:23.973170,451
06:00:23.989519,442
06:00:24.005482,427
06:00:24.005482,430
06:00:24.021551,424
06:00:24.037366,430
06:00:24.037366,424
06:00:24.053031,429
06:00:24.053031,416
06:00:24.069367,410
06:00:24.085211,398
06:00:24.085211,405
06:00:24.101378,404
06:00:24.117138,415
06:00:24.117682,413
06:00:24.133056,421
06:00:24.133607,411
06:00:24.148615,410
06:00:24.165356,405
06:00:24.165356,411
06:00:24.181523,412
06:00:24.197521,427
06:00:24.197521,429
06:00:24.213529,442
06:00:24.229426,435
06:00:24.229426,437
06:00:24.245333,432
06:00:24.245333,444
06:00:24.261700,448
06:00:24.276765,463
06:00:24.277765,465
06:00:24.292772,463
06:00:24.309228,451
06:00:24.309228,444
06:00:24.325235,440
06:00:24.325235,446
06:00:24.341270,451
06:00:24.356681,474
06:00:24.357676,500
06:00:24.372687,533
06:00:24.389383,545
06:00:24.389383,555
06:00:24.405345,559
06:00:24.405789,570
06:00:24.421218,574
06:00:24.437368,579
06:00:24.437695,575
06:00:24.453477,576
06:00:24.469382,557
06:00:24.469753,547
06:00:24.485274,536
06:00:24.485631,535
06:00:24.501378,531
06:00:24.517231,531
06:00:24.517231,526
06:00:24.533375,528
06:00:24.549513,514
06:00:24.549513,502
06:00:24.565329,493
06:00:24.565909,494
06:00:24.581362,493
06:00:24.597507,498
06:00:24.597839,499
06:00:24.613391,503
06:00:24.629630,493
06:00:24.629630,485
06:00:24.645328,479
06:00:24.645328,481
06:00:24.661508,482
06:00:24.677287,483
06:00:24.677287,481
06:00:24.693211,484
06:00:24.709365,473
06:00:24.709365,465
06:00:24.725327,457
06:00:24.725688,460
06:00:24.741373,461
06:00:24.757199,466
06:00:24.757199,467
06:00:24.773203,472
06:00:24.789287,463
06:00:24.789287,448
06:00:24.805291,429
06:00:24.805291,415
06:00:24.821296,408
06:00:24.837329,406
06:00:24.837826,413
06:00:24.853198,434
06:00:24.869508,448
06:00:24.869508,466
06:00:24.884830,478
06:00:24.885684,493
06:00:24.901553,504
06:00:24.917594,513
06:00:24.917594,514
06:00:24.933173,517
06:00:24.949351,505
06:00:24.949770,490
06:00:24.965130,480
06:00:24.965130,478
06:00:24.980964,475
06:00:24.997371,475
06:00:24.997371,468
06:00:25.013029,464
06:00:25.029198,448
06:00:25.029620,435
06:00:25.045366,428
06:00:25.045366,428
06:00:25.061548,429
06:00:25.077496,431
06:00:25.077842,432
06:00:25.093036,432
06:00:25.109481,422
06:00:25.109951,413
06:00:25.125354,412
06:00:25.141501,416
06:00:25.141733,421
06:00:25.157353,428
06:00:25.157699,429
06:00:25.173129,432
06:00:25.189181,424
06:00:25.189181,416
06:00:25.204983,416
06:00:25.221504,418
06:00:25.221504,425
06:00:25.237502,432
06:00:25.237869,440
06:00:25.253033,449
06:00:25.269075,445
06:00:25.269075,444
06:00:25.285351,444
06:00:25.300876,440
06:00:25.301876,433
06:00:25.316831,431
06:00:25.317832,433
06:00:25.333353,438
06:00:25.349198,446
06:00:25.349198,464
06:00:25.365202,492
06:00:25.381305,523
06:00:25.381305,550
06:00:25.397351,568
06:00:25.397695,579
06:00:25.413031,586
06:00:25.429193,577
06:00:25.429853,569
06:00:25.445507,565
06:00:25.461498,566
06:00:25.461498,569
06:00:25.477500,569
06:00:25.477500,569
06:00:25.493508,569
06:00:25.509317,555
06:00:25.509317,541
06:00:25.525180,534
06:00:25.541468,531
06:00:25.541468,532
06:00:25.557498,529
06:00:25.557498,525
06:00:25.572565,523
06:00:25.589555,510
06:00:25.589555,501
06:00:25.605347,500
06:00:25.621354,506
06:00:25.621716,510
06:00:25.637363,514
06:00:25.637363,513
06:00:25.653176,513
06:00:25.669190,502
06:00:25.669190,494
06:00:25.685360,494
06:00:25.701347,499
06:00:25.701904,503
06:00:25.717499,504
06:00:25.717869,506
06:00:25.733540,506
06:00:25.749232,493
06:00:25.749232,482
06:00:25.765004,478
06:00:25.781016,482
06:00:25.782021,482
06:00:25.797526,469
06:00:25.797526,457
06:00:25.813532,443
06:00:25.829501,436
06:00:25.830003,432
06:00:25.845027,433
06:00:25.861038,444
06:00:25.861038,467
06:00:25.877043,493
06:00:25.877043,512
06:00:25.893033,527
06:00:25.908843,526
06:00:25.908843,523
06:00:25.925334,524
06:00:25.941494,528
06:00:25.941834,530
06:00:25.957509,526
06:00:25.957509,522
06:00:25.973178,515
06:00:25.989179,497
06:00:25.989179,480
06:00:26.005343,473
06:00:26.021268,469
06:00:26.021268,467
06:00:26.037350,462
06:00:26.037715,459
06:00:26.053057,452
06:00:26.068869,437
06:00:26.069875,423
06:00:26.085349,420
06:00:26.101211,421
06:00:26.101710,423
06:00:26.117357,423
06:00:26.133061,425
06:00:26.133558,422
06:00:26.149488,410
06:00:26.149488,400
06:00:26.165340,401
06:00:26.181491,400
06:00:26.181491,404
06:00:26.197485,403
06:00:26.213034,404
06:00:26.213034,400
06:00:26.229376,390
06:00:26.229814,379
06:00:26.244726,378
06:00:26.261490,378
06:00:26.261844,385
06:00:26.277258,388
06:00:26.293263,387
06:00:26.293263,372
06:00:26.309269,361
06:00:26.309269,348
06:00:26.325273,348
06:00:26.341300,349
06:00:26.341300,361
06:00:26.357316,380
06:00:26.373337,410
06:00:26.373337,436
06:00:26.389331,450
06:00:26.389331,460
06:00:26.405456,475
06:00:26.421547,485
06:00:26.421547,498
06:00:26.437405,503
06:00:26.453035,509
06:00:26.453035,509
06:00:26.469337,499
06:00:26.469337,490
06:00:26.485334,493
06:00:26.500544,494
06:00:26.501550,503
06:00:26.517321,506
06:00:26.533027,517
06:00:26.533532,516
06:00:26.549202,510
06:00:26.549732,505
06:00:26.565345,511
06:00:26.581353,515
06:00:26.581706,526
06:00:26.597334,531
06:00:26.613612,542
06:00:26.613612,541
06:00:26.629336,534
06:00:26.629336,526
06:00:26.645333,530
06:00:26.661483,531
06:00:26.661483,539
06:00:26.677302,540
06:00:26.692965,548
06:00:26.693956,544
06:00:26.709166,535
06:00:26.709166,526
06:00:26.725329,529
06:00:26.741350,530
06:00:26.741713,539
06:00:26.757341,538
06:00:26.773349,545
06:00:26.773349,541
06:00:26.789288,531
06:00:26.789288,510
06:00:26.804908,496
06:00:26.820914,482
06:00:26.821915,480
06:00:26.837436,475
06:00:26.852962,489
06:00:26.852962,506
06:00:26.868969,520
06:00:26.868969,534
06:00:26.884978,551
06:00:26.901332,560
06:00:26.901332,573
06:00:26.917428,575
06:00:26.932908,582
06:00:26.932908,572
06:00:26.949335,554
06:00:26.965332,535
06:00:26.965583,528
06:00:26.981329,519
06:00:26.981329,515
06:00:26.997319,507
06:00:27.013057,506
06:00:27.013057,489
06:00:27.029344,473
06:00:27.045351,458
06:00:27.045351,455
06:00:27.061481,448
06:00:27.061860,452
06:00:27.077042,449
06:00:27.093134,457
06:00:27.093134,446
06:00:27.109477,437
06:00:27.125476,428
06:00:27.125476,432
06:00:27.141478,431
06:00:27.141981,436
06:00:27.157366,435
06:00:27.173031,442
06:00:27.173583,435
06:00:27.189331,426
06:00:27.205344,416
06:00:27.205344,421
06:00:27.221346,422
06:00:27.221719,430
06:00:27.237297,431
06:00:27.253033,440
06:00:27.253645,435
06:00:27.268454,427
06:00:27.285306,421
06:00:27.285306,417
06:00:27.301314,403
06:00:27.301314,398
06:00:27.316701,390
06:00:27.332709,394
06:00:27.333710,394
06:00:27.349242,405
06:00:27.364761,420
06:00:27.365759,450
06:00:27.380764,469
06:00:27.381764,491
06:00:27.397314,498
06:00:27.413032,507
06:00:27.413032,495
06:00:27.429329,484
06:00:27.445321,472
06:00:27.445673,470
06:00:27.460541,464
06:00:27.461547,465
06:00:27.477048,457
06:00:27.493168,458
06:00:27.493168,444
06:00:27.509474,428
06:00:27.525464,414
06:00:27.525464,414
06:00:27.541454,412
06:00:27.541930,419
06:00:27.557291,417
06:00:27.573114,424
06:00:27.573709,417
06:00:27.589198,411
06:00:27.605322,408
06:00:27.605952,417
06:00:27.621318,422
06:00:27.621318,437
06:00:27.636678,443
06:00:27.653052,459
06:00:27.653583,456
06:00:27.669335,458
06:00:27.685333,451
06:00:27.685333,459
06:00:27.701259,465
06:00:27.701259,482
06:00:27.716969,483
06:00:27.733035,496
06:00:27.733035,494
06:00:27.749471,495
06:00:27.765517,497
06:00:27.765517,509
06:00:27.781237,518
06:00:27.781237,520
06:00:27.797336,509
06:00:27.813341,508
06:00:27.813341,502
06:00:27.829348,506
06:00:27.845366,509
06:00:27.845366,521
06:00:27.860892,539
06:00:27.876897,572
06:00:27.876897,599
06:00:27.893176,624
06:00:27.893715,628
06:00:27.909181,624
06:00:27.925038,617
06:00:27.925622,620
06:00:27.941308,613
06:00:27.956931,614
06:00:27.956931,603
06:00:27.973049,603
06:00:27.973609,584
06:00:27.988850,565
06:00:28.005468,545
06:00:28.005468,541
06:00:28.021554,531
06:00:28.037221,532
06:00:28.037221,526
06:00:28.053096,531
06:00:28.053599,519
06:00:28.069467,508
06:00:28.085467,496
06:00:28.085821,499
06:00:28.101444,497
06:00:28.117608,505
06:00:28.117608,504
06:00:28.132632,511
06:00:28.133638,503
06:00:28.149466,492
06:00:28.165304,482
06:00:28.165304,485
06:00:28.181310,483
06:00:28.197162,489
06:00:28.197728,487
06:00:28.212684,493
06:00:28.213698,485
06:00:28.229329,476
06:00:28.245315,467
06:00:28.245653,473
06:00:28.261111,472
06:00:28.276793,480
06:00:28.276793,476
06:00:28.292802,469
06:00:28.292802,449
06:00:28.308459,434
06:00:28.324811,419
06:00:28.324811,416
06:00:28.340816,410
06:00:28.357348,425
06:00:28.357849,441
06:00:28.373359,471
06:00:28.373359,481
06:00:28.389461,488
06:00:28.405313,487
06:00:28.405313,494
06:00:28.421280,493
06:00:28.436837,499
06:00:28.437831,488
06:00:28.453359,486
06:00:28.453858,466
06:00:28.469460,448
06:00:28.485385,429
06:00:28.485385,425
06:00:28.501431,417
06:00:28.517310,419
06:00:28.517310,409
06:00:28.533056,411
06:00:28.533632,396
06:00:28.549307,387
06:00:28.565153,377
06:00:28.565639,380
06:00:28.581306,380
06:00:28.597327,390
06:00:28.597327,388
06:00:28.613172,395
06:00:28.613589,383
06:00:28.629354,377
06:00:28.645460,370
06:00:28.645460,374
06:00:28.661431,375
06:00:28.677460,384
06:00:28.677460,384
06:00:28.692903,391
06:00:28.692903,381
06:00:28.709441,375
06:00:28.725417,368
06:00:28.725854,370
06:00:28.741251,371
06:00:28.757458,381
06:00:28.757810,382
06:00:28.773016,393
06:00:28.788709,390
06:00:28.789707,382
06:00:28.804713,369
06:00:28.805712,366
06:00:28.820717,367
06:00:28.836727,378
06:00:28.836727,390
06:00:28.853246,422
06:00:28.869157,444
06:00:28.869157,473
06:00:28.885295,492
06:00:28.885295,519
06:00:28.900616,536
06:00:28.917486,553
06:00:28.917814,558
06:00:28.933054,569
06:00:28.949455,557
06:00:28.949805,549
06:00:28.965043,541
06:00:28.965043,544
06:00:28.980939,543
06:00:28.997407,548
06:00:28.997407,546
06:00:29.013173,550
06:00:29.029163,536
06:00:29.029669,528
06:00:29.045023,521
06:00:29.045546,525
06:00:29.061330,525
06:00:29.077315,528
06:00:29.077659,529
06:00:29.093032,538
06:00:29.109447,529
06:00:29.109690,524
06:00:29.125292,521
06:00:29.125292,526
06:00:29.141451,528
06:00:29.157452,534
06:00:29.157452,535
06:00:29.173172,537
06:00:29.189453,526
06:00:29.189453,517
06:00:29.205421,513
06:00:29.205421,517
06:00:29.221452,521
06:00:29.237459,524
06:00:29.237459,526
06:00:29.253035,530
06:00:29.269290,521
06:00:29.269290,513
06:00:29.285296,503
06:00:29.285296,492
06:00:29.300902,476
06:00:29.316908,466
06:00:29.316908,457
06:00:29.332917,455
06:00:29.349441,455
06:00:29.349441,466
06:00:29.364473,489
06:00:29.365468,515
06:00:29.380479,534
06:00:29.397478,547
06:00:29.397478,550
06:00:29.413034,551
06:00:29.429449,539
06:00:29.429449,524
06:00:29.445397,511
06:00:29.445900,506
06:00:29.461565,499
06:00:29.477444,494
06:00:29.477444,487
06:00:29.493028,480
06:00:29.509442,462
06:00:29.509442,448
06:00:29.525386,437
06:00:29.525749,440
06:00:29.541445,438
06:00:29.557447,441
06:00:29.557806,440
06:00:29.573189,443
06:00:29.589392,434
06:00:29.589693,427
06:00:29.605283,425
06:00:29.605283,429
06:00:29.620544,429
06:00:29.637298,434
06:00:29.637298,432
06:00:29.653088,433
06:00:29.669162,424
06:00:29.669630,416
06:00:29.685285,411
06:00:29.700619,416
06:00:29.701613,419
06:00:29.717510,423
06:00:29.717510,424
06:00:29.733151,425
06:00:29.749612,417
06:00:29.749831,411
06:00:29.765298,408
06:00:29.781300,415
06:00:29.781300,414
06:00:29.796887,406
06:00:29.797892,393
06:00:29.812897,381
06:00:29.828901,375
06:00:29.829902,372
06:00:29.844907,372
06:00:29.861437,387
06:00:29.861437,407
06:00:29.877450,437
06:00:29.877450,457
06:00:29.893457,473
06:00:29.909442,469
06:00:29.909442,467
06:00:29.924668,461
06:00:29.940927,461
06:00:29.940927,456
06:00:29.957443,450
06:00:29.957443,440
06:00:29.972504,431
06:00:29.989263,409
06:00:29.989587,392
06:00:30.005000,383
06:00:30.021296,382
06:00:30.021296,385
06:00:30.037302,388
06:00:30.037629,392
06:00:30.053028,396
06:00:30.069299,390
06:00:30.069299,386
06:00:30.085257,389
06:00:30.101545,397
06:00:30.101545,408
06:00:30.117432,418
06:00:30.117432,426
06:00:30.133027,432
06:00:30.149414,427
06:00:30.149918,423
06:00:30.165136,427
06:00:30.181442,438
06:00:30.181442,447
06:00:30.197436,458
06:00:30.197786,468
06:00:30.213028,477
06:00:30.229101,475
06:00:30.229585,474
06:00:30.245291,481
06:00:30.261301,493
06:00:30.261655,502
06:00:30.277314,514
06:00:30.277314,515
06:00:30.293320,503
06:00:30.309330,490
06:00:30.309330,475
06:00:30.324749,471
06:00:30.340759,472
06:00:30.341754,476
06:00:30.357407,491
06:00:30.357790,515
06:00:30.372813,537
06:00:30.389404,546
06:00:30.389813,549
06:00:30.405438,552
06:00:30.421435,557
06:00:30.421435,553
06:00:30.437433,547
06:00:30.437433,539
06:00:30.453171,528
06:00:30.469406,506
06:00:30.469406,486
06:00:30.485137,474
06:00:30.501300,467
06:00:30.501300,463
06:00:30.517351,459
06:00:30.517720,458
06:00:30.532961,454
06:00:30.549148,442
06:00:30.549647,432
06:00:30.565294,435
06:00:30.581299,442
06:00:30.581659,452
06:00:30.597150,461
06:00:30.612923,472
06:00:30.612923,478
06:00:30.629278,476
06:00:30.629278,467
06:00:30.645432,469
06:00:30.661438,472
06:00:30.661438,479
06:00:30.677521,482
06:00:30.693064,486
06:00:30.693064,486
06:00:30.708701,476
06:00:30.709725,467
06:00:30.725430,467
06:00:30.741285,470
06:00:30.741285,476
06:00:30.757134,479
06:00:30.773310,485
06:00:30.773310,486
06:00:30.789045,479
06:00:30.789045,461
06:00:30.805052,447
06:00:30.821056,433
06:00:30.821056,428
06:00:30.837066,422
06:00:30.853033,431
06:00:30.853642,448
06:00:30.869402,459
06:00:30.869812,469
06:00:30.885423,482
06:00:30.901431,490
06:00:30.901788,498
06:00:30.917428,498
06:00:30.933173,497
06:00:30.933671,492
06:00:30.949201,477
06:00:30.949704,463
06:00:30.965431,458
06:00:30.981429,454
06:00:30.981429,455
06:00:30.997465,451
06:00:31.013176,450
06:00:31.013176,447
06:00:31.029031,436
06:00:31.029031,426
06:00:31.045259,427
06:00:31.061275,429
06:00:31.061622,437
06:00:31.077292,439
06:00:31.093028,446
06:00:31.093583,444
06:00:31.109143,436
06:00:31.109686,429
06:00:31.125154,436
06:00:31.140862,436
06:00:31.141855,443
06:00:31.157275,444
06:00:31.173512,451
06:00:31.173512,447
06:00:31.189279,438
06:00:31.189903,429
06:00:31.205420,430
06:00:31.221547,432
06:00:31.221547,438
06:00:31.237415,438
06:00:31.253492,443
06:00:31.253492,436
06:00:31.269118,426
06:00:31.269118,419
06:00:31.285368,414
06:00:31.300697,402
06:00:31.301698,395
06:00:31.316702,388
06:00:31.332711,390
06:00:31.333709,392
06:00:31.349221,400
06:00:31.349221,414
06:00:31.364755,440
06:00:31.381128,462
06:00:31.381128,485
06:00:31.397270,494
06:00:31.412759,504
06:00:31.412759,501
06:00:31.429439,489
06:00:31.445127,476
06:00:31.445127,473
06:00:31.461339,467
06:00:31.461339,466
06:00:31.477268,459
06:00:31.492982,458
06:00:31.492982,444
06:00:31.509324,428
06:00:31.525274,412
06:00:31.525274,407
06:00:31.541420,403
06:00:31.541786,407
06:00:31.557391,406
06:00:31.572845,411
06:00:31.573856,404
06:00:31.588924,397
06:00:31.605269,390
06:00:31.605269,398
06:00:31.621422,401
06:00:31.621422,413
06:00:31.637506,418
06:00:31.653461,429
06:00:31.653461,428
06:00:31.669125,422
06:00:31.685273,416
06:00:31.685273,423
06:00:31.701282,424
06:00:31.701648,432
06:00:31.717265,434
06:00:31.732789,443
06:00:31.733781,439
06:00:31.749280,433
06:00:31.764420,428
06:00:31.765420,437
06:00:31.780447,446
06:00:31.781427,452
06:00:31.796692,447
06:00:31.812697,446
06:00:31.813698,443
06:00:31.828703,448
06:00:31.844709,452
06:00:31.845708,467
06:00:31.861238,479
06:00:31.861738,509
06:00:31.876754,536
06:00:31.892759,569
06:00:31.893759,578
06:00:31.909417,583
06:00:31.925414,575
06:00:31.925414,579
06:00:31.941524,579
06:00:31.941753,585
06:00:31.957258,583
06:00:31.973002,587
06:00:31.973002,573
06:00:31.989271,554
06:00:32.005126,537
06:00:32.005126,528
06:00:32.021281,513
06:00:32.021662,503
06:00:32.037438,490
06:00:32.053028,489
06:00:32.053533,477
06:00:32.069413,465
06:00:32.085266,458
06:00:32.085731,459
06:00:32.101412,459
06:00:32.101412,467
06:00:32.116623,468
06:00:32.133172,475
06:00:32.133172,464
06:00:32.149119,456
06:00:32.165281,441
06:00:32.165281,440
06:00:32.180542,437
06:00:32.181662,444
06:00:32.197106,444
06:00:32.213046,451
06:00:32.213650,442
06:00:32.229267,432
06:00:32.245413,424
06:00:32.245768,424
06:00:32.261411,421
06:00:32.261411,427
06:00:32.277254,428
06:00:32.293261,424
06:00:32.293261,405
06:00:32.308585,394
06:00:32.324590,380
06:00:32.325591,381
06:00:32.340599,379
06:00:32.357120,392
06:00:32.357621,411
06:00:32.373138,444
06:00:32.373138,458
06:00:32.389143,465
06:00:32.405143,466
06:00:32.405143,476
06:00:32.420542,479
06:00:32.437249,486
06:00:32.437249,482
06:00:32.453046,484
06:00:32.453556,470
06:00:32.469272,455
06:00:32.485278,440
06:00:32.485278,442
06:00:32.501445,435
06:00:32.517102,439
06:00:32.517581,438
06:00:32.533055,446
06:00:32.533646,438
06:00:32.549496,431
06:00:32.565300,421
06:00:32.565630,426
06:00:32.581409,425
06:00:32.597380,433
06:00:32.597793,434
06:00:32.613030,443
06:00:32.613596,439
06:00:32.629257,431
06:00:32.645408,426
06:00:32.645408,436
06:00:32.661199,438
06:00:32.677378,450
06:00:32.677378,454
06:00:32.693177,464
06:00:32.693723,462
06:00:32.709111,458
06:00:32.725235,456
06:00:32.725572,469
06:00:32.741109,477
06:00:32.757340,494
06:00:32.757340,500
06:00:32.773000,513
06:00:32.773000,511
06:00:32.789294,503
06:00:32.804867,484
06:00:32.804867,474
06:00:32.820874,464
06:00:32.836881,468
06:00:32.836881,467
06:00:32.853398,490
06:00:32.853398,503
06:00:32.868927,524
06:00:32.885397,535
06:00:32.885735,555
06:00:32.901436,563
06:00:32.917266,578
06:00:32.917630,576
06:00:32.932985,579
06:00:32.932985,562
06:00:32.949255,548
06:00:32.965283,532
06:00:32.965283,529
06:00:32.981248,520
06:00:32.996758,521
06:00:32.997585,512
06:00:33.013324,512
06:00:33.013670,497
06:00:33.029280,486
06:00:33.045268,475
06:00:33.045620,480
06:00:33.061248,480
06:00:33.077102,490
06:00:33.077102,488
06:00:33.093287,494
06:00:33.093287,483
06:00:33.109254,477
06:00:33.125401,467
06:00:33.125401,468
06:00:33.141552,466
06:00:33.157254,475
06:00:33.157761,470
06:00:33.172919,477
06:00:33.189401,468
06:00:33.189401,466
06:00:33.205392,459
06:00:33.205727,464
06:00:33.221364,463
06:00:33.237393,473
06:00:33.237393,468
06:00:33.253026,472
06:00:33.268954,461
06:00:33.269455,451
06:00:33.285019,441
06:00:33.285019,434
06:00:33.300514,422
06:00:33.316624,419
06:00:33.317623,414
06:00:33.332638,420
06:00:33.348634,421
06:00:33.349635,439
06:00:33.365161,462
06:00:33.365161,497
06:00:33.381179,520
06:00:33.397267,542
06:00:33.397604,547
06:00:33.412980,555
06:00:33.429398,539
06:00:33.429766,527
06:00:33.445397,513
06:00:33.445397,509
06:00:33.461369,502
06:00:33.477400,502
06:00:33.477400,494
06:00:33.493173,494
06:00:33.509395,477
06:00:33.509395,466
06:00:33.525366,456
06:00:33.525771,461
06:00:33.541214,461
06:00:33.557246,468
06:00:33.557751,469
06:00:33.573275,475
06:00:33.589393,463
06:00:33.589748,459
06:00:33.605280,452
06:00:33.605280,459
06:00:33.621243,460
06:00:33.637228,465
06:00:33.637541,463
06:00:33.653202,467
06:00:33.669263,456
06:00:33.669263,449
06:00:33.685087,438
06:00:33.685087,441
06:00:33.700537,438
06:00:33.717303,440
06:00:33.717639,434
06:00:33.733029,436
06:00:33.749394,422
06:00:33.749394,409
06:00:33.765242,399
06:00:33.765743,398
06:00:33.781410,390
06:00:33.797439,378
06:00:33.797439,356
06:00:33.813445,344
06:00:33.829015,331
06:00:33.829015,326
06:00:33.845021,327
06:00:33.845021,337
06:00:33.861041,355
06:00:33.876563,385
06:00:33.877564,409
06:00:33.892574,433
06:00:33.909002,437
06:00:33.909002,437
06:00:33.925084,434
06:00:33.925713,440
06:00:33.940535,441
06:00:33.957259,450
06:00:33.957259,447
06:00:33.973032,452
06:00:33.989257,443
06:00:33.989257,438
06:00:34.005093,433
06:00:34.021014,441
06:00:34.021014,445
06:00:34.037441,455
06:00:34.037441,457
06:00:34.053030,464
06:00:34.069393,457
06:00:34.069743,456
06:00:34.085360,456
06:00:34.101114,466
06:00:34.101114,472
06:00:34.117412,486
06:00:34.117412,488
06:00:34.133172,498
06:00:34.149430,490
06:00:34.149701,487
06:00:34.165358,486
06:00:34.181244,495
06:00:34.181244,500
06:00:34.197234,509
06:00:34.197605,513
06:00:34.212998,522
06:00:34.229255,513
06:00:34.229255,512
06:00:34.245079,511
06:00:34.261254,520
06:00:34.261610,525
06:00:34.276826,537
06:00:34.276826,532
06:00:34.292831,523
06:00:34.308738,504
06:00:34.309739,489
06:00:34.324743,478
06:00:34.340748,475
06:00:34.341749,474
06:00:34.357266,491
06:00:34.357266,511
06:00:34.372765,534
06:00:34.389382,537
06:00:34.389382,539
06:00:34.405213,537
06:00:34.421236,540
06:00:34.421236,535
06:00:34.437383,532
06:00:34.437383,521
06:00:34.453391,514
06:00:34.469382,489
06:00:34.469382,471
06:00:34.485347,456
06:00:34.501548,451
06:00:34.501695,445
06:00:34.517377,442
06:00:34.517715,437
06:00:34.533050,435
06:00:34.549013,421
06:00:34.549013,413
06:00:34.565076,409
06:00:34.580545,414
06:00:34.581552,413
06:00:34.596696,417
06:00:34.597703,417
06:00:34.613027,419
06:00:34.629382,407
06:00:34.629382,398
06:00:34.645346,393
06:00:34.661364,400
06:00:34.661678,402
06:00:34.677380,409
06:00:34.677722,412
06:00:34.693033,418
06:00:34.709233,412
06:00:34.709233,411
06:00:34.724598,413
06:00:34.741547,423
06:00:34.741547,427
06:00:34.757379,435
06:00:34.757379,439
06:00:34.773408,445
06:00:34.788399,436
06:00:34.789399,422
06:00:34.804631,407
06:00:34.820639,398
06:00:34.821636,396
06:00:34.836640,399
06:00:34.836640,411
06:00:34.852647,436
06:00:34.869172,454
06:00:34.869172,475
06:00:34.884622,496
06:00:34.901378,518
06:00:34.901378,525
06:00:34.917375,533
06:00:34.933052,534
06:00:34.933052,532
06:00:34.949372,517
06:00:34.949372,500
06:00:34.965010,489
06:00:34.981383,483
06:00:34.981383,476
06:00:34.997227,471
06:00:35.013030,463
06:00:35.013030,457
06:00:35.029247,439
06:00:35.029247,426
06:00:35.045035,418
06:00:35.061228,417
06:00:35.061626,416
06:00:35.077264,416
06:00:35.092638,415
06:00:35.093646,411
06:00:35.109194,395
06:00:35.109194,386
06:00:35.125075,383
06:00:35.141230,386
06:00:35.141230,388
06:00:35.157227,390
06:00:35.173029,390
06:00:35.173569,388
06:00:35.189192,376
06:00:35.189192,368
06:00:35.205226,368
06:00:35.221373,367
06:00:35.221730,369
06:00:35.237223,375
06:00:35.253173,381
06:00:35.253646,385
06:00:35.269066,380
06:00:35.269568,380
06:00:35.284987,377
06:00:35.300997,371
06:00:35.300997,366
06:00:35.316858,365
06:00:35.332864,370
06:00:35.332864,381
06:00:35.348870,394
06:00:35.348870,419
06:00:35.364888,453
06:00:35.380413,486
06:00:35.381413,512
06:00:35.397226,532
06:00:35.413035,549
06:00:35.413035,556
06:00:35.429218,550
06:00:35.429218,547
06:00:35.445369,547
06:00:35.461256,549
06:00:35.461256,550
06:00:35.477364,551
06:00:35.493031,554
06:00:35.493031,551
06:00:35.509340,540
06:00:35.509753,535
06:00:35.525253,536
06:00:35.541223,542
06:00:35.541223,549
06:00:35.557208,556
06:00:35.573174,565
06:00:35.573663,563
06:00:35.589340,554
06:00:35.589340,550
06:00:35.605217,548
06:00:35.621226,553
06:00:35.621226,553
06:00:35.637217,555
06:00:35.653226,551
06:00:35.653226,550
06:00:35.669244,536
06:00:35.669612,530
06:00:35.685232,524
06:00:35.701267,526
06:00:35.701267,525
06:00:35.717216,528
06:00:35.733173,526
06:00:35.733643,521
06:00:35.748608,505
06:00:35.749603,496
06:00:35.764935,489
06:00:35.780797,489
06:00:35.780797,481
06:00:35.797290,463
06:00:35.813295,446
06:00:35.813295,432
06:00:35.829413,426
06:00:35.844418,424
06:00:35.845417,428
06:00:35.861430,440
06:00:35.861430,460
06:00:35.876959,489
06:00:35.892966,514
06:00:35.892966,527
06:00:35.909255,526
06:00:35.925082,526
06:00:35.925082,526
06:00:35.941082,530
06:00:35.941082,528
06:00:35.956447,526
06:00:35.973033,519
06:00:35.973543,504
06:00:35.988626,485
06:00:36.005365,477
06:00:36.005365,472
06:00:36.021364,477
06:00:36.021714,479
06:00:36.037365,482
06:00:36.053373,485
06:00:36.053666,479
06:00:36.069374,467
06:00:36.085215,463
06:00:36.085741,462
06:00:36.101545,467
06:00:36.101671,469
06:00:36.117215,472
06:00:36.132986,474
06:00:36.132986,468
06:00:36.148994,460
06:00:36.165202,452
06:00:36.165202,450
06:00:36.180544,454
06:00:36.181703,463
06:00:36.196617,469
06:00:36.213176,477
06:00:36.213762,476
06:00:36.229224,467
06:00:36.245227,464
06:00:36.245588,464
06:00:36.261212,466
06:00:36.261212,471
06:00:36.277108,471
06:00:36.293122,461
06:00:36.293122,442
06:00:36.308839,425
06:00:36.324843,410
06:00:36.324843,405
06:00:36.340851,402
06:00:36.340851,410
06:00:36.356857,426
06:00:36.373375,453
06:00:36.373375,467
06:00:36.389358,470
06:00:36.405351,472
06:00:36.405687,473
06:00:36.421357,474
06:00:36.421357,476
06:00:36.437201,471
06:00:36.452608,468
06:00:36.453614,454
06:00:36.469047,435
06:00:36.485273,417
06:00:36.485273,408
06:00:36.501316,402
06:00:36.501596,401
06:00:36.516449,398
06:00:36.533037,399
06:00:36.533037,392
06:00:36.549221,381
06:00:36.565062,376
06:00:36.565062,378
06:00:36.581208,377
06:00:36.597293,383
06:00:36.597569,387
06:00:36.613029,400
06:00:36.613555,402
06:00:36.629208,402
06:00:36.645356,405
06:00:36.645356,417
06:00:36.661254,428
06:00:36.677326,444
06:00:36.677829,455
06:00:36.692849,468
06:00:36.692849,473
06:00:36.709354,471
06:00:36.725355,473
06:00:36.725355,484
06:00:36.741203,494
06:00:36.757098,510
06:00:36.757457,522
06:00:36.772992,541
06:00:36.773480,545
06:00:36.788852,543
06:00:36.804531,532
06:00:36.805537,527
06:00:36.820540,523
06:00:36.836546,529
06:00:36.837546,534
06:00:36.852551,560
06:00:36.853551,583
06:00:36.869196,604
06:00:36.885348,625
06:00:36.885348,651
06:00:36.900546,664
06:00:36.916924,678
06:00:36.917659,683
06:00:36.933022,688
06:00:36.933022,678
06:00:36.949353,661
06:00:36.965201,646
06:00:36.965565,639
06:00:36.981350,628
06:00:36.997315,621
06:00:36.997315,610
06:00:37.012967,605
06:00:37.012967,586
06:00:37.029482,567
06:00:37.045200,552
06:00:37.045538,544
06:00:37.060544,536
06:00:37.077188,539
06:00:37.077581,531
06:00:37.093113,532
06:00:37.093113,518
06:00:37.109213,507
06:00:37.125068,495
06:00:37.125068,493
06:00:37.141210,487
06:00:37.157252,490
06:00:37.157252,484
06:00:37.173274,486
06:00:37.173274,476
06:00:37.189351,462
06:00:37.205348,450
06:00:37.205348,452
06:00:37.221349,451
06:00:37.237167,461
06:00:37.237167,459
06:00:37.253248,467
06:00:37.253248,460
06:00:37.269402,456
06:00:37.284930,450
06:00:37.284930,442
06:00:37.300933,426
06:00:37.316938,419
06:00:37.316938,411
06:00:37.332954,415
06:00:37.332954,416
06:00:37.348952,429
06:00:37.364960,450
06:00:37.364960,485
06:00:37.381194,509
06:00:37.397194,534
06:00:37.397502,543
06:00:37.412515,556
06:00:37.413512,547
06:00:37.429064,540
06:00:37.445346,533
06:00:37.445346,529
06:00:37.461344,523
06:00:37.477184,525
06:00:37.477689,517
06:00:37.492856,516
06:00:37.509269,499
06:00:37.509269,487
06:00:37.525339,474
06:00:37.525680,475
06:00:37.541163,470
06:00:37.557308,476
06:00:37.557712,470
06:00:37.573030,473
06:00:37.589343,460
06:00:37.589669,453
06:00:37.605194,445
06:00:37.605194,448
06:00:37.621344,448
06:00:37.637242,453
06:00:37.637242,450
06:00:37.653033,455
06:00:37.669196,440
06:00:37.669702,430
06:00:37.685343,420
06:00:37.685708,423
06:00:37.701312,423
06:00:37.716793,425
06:00:37.717775,421
06:00:37.733033,428
06:00:37.749201,419
06:00:37.749559,415
06:00:37.764283,410
06:00:37.765284,419
06:00:37.780921,421
06:00:37.796936,421
06:00:37.796936,407
06:00:37.812941,401
06:00:37.828947,392
06:00:37.828947,397
06:00:37.844952,400
06:00:37.844952,411
06:00:37.860958,429
06:00:37.876980,464
06:00:37.877478,493
06:00:37.893001,529
06:00:37.909340,537
06:00:37.909694,547
06:00:37.925226,550
06:00:37.925226,563
06:00:37.941315,566
06:00:37.957079,572
06:00:37.957079,571
06:00:37.973032,576
06:00:37.989340,567
06:00:37.989340,558
06:00:38.005333,549
06:00:38.005667,552
06:00:38.021302,554
06:00:38.036612,563
06:00:38.037526,563
06:00:38.053032,572
06:00:38.069187,566
06:00:38.069701,560
06:00:38.085186,554
06:00:38.085587,559
06:00:38.101038,561
06:00:38.116939,566
06:00:38.117617,563
06:00:38.133033,568
06:00:38.149195,558
06:00:38.149195,549
06:00:38.165043,542
06:00:38.165043,548
06:00:38.181176,549
06:00:38.197198,559
06:00:38.197198,559
06:00:38.213031,569
06:00:38.229097,562
06:00:38.229441,555
06:00:38.244865,551
06:00:38.244865,558
06:00:38.261248,561
06:00:38.276922,568
06:00:38.277423,562
06:00:38.292951,552
06:00:38.309245,528
06:00:38.309245,515
06:00:38.324687,500
06:00:38.324687,499
06:00:38.341173,494
06:00:38.356705,502
06:00:38.356705,515
06:00:38.372710,540
06:00:38.389243,546
06:00:38.389243,549
06:00:38.405181,547
06:00:38.405740,550
06:00:38.421315,546
06:00:38.437309,547
06:00:38.437309,533
06:00:38.453030,526
06:00:38.469331,502
06:00:38.469331,483
06:00:38.485326,463
06:00:38.501407,458
06:00:38.501573,447
06:00:38.517332,443
06:00:38.517692,433
06:00:38.533030,431
06:00:38.549332,410
06:00:38.549694,400
06:00:38.564692,390
06:00:38.581319,397
06:00:38.581683,393
06:00:38.597184,397
06:00:38.597184,396
06:00:38.613030,402
06:00:38.629197,390
06:00:38.629197,385
06:00:38.645033,381
06:00:38.661176,389
06:00:38.661176,390
06:00:38.676879,399
06:00:38.676879,400
06:00:38.693024,405
06:00:38.709431,394
06:00:38.709431,391
06:00:38.725034,387
06:00:38.741414,397
06:00:38.741636,401
06:00:38.757182,411
06:00:38.757182,415
06:00:38.773068,425
06:00:38.789424,414
06:00:38.789424,402
06:00:38.804538,386
06:00:38.820673,380
06:00:38.821675,374
06:00:38.836678,379
06:00:38.836678,380
06:00:38.852683,400
06:00:38.868690,411
06:00:38.868690,434
06:00:38.885209,454
06:00:38.901229,481
06:00:38.901229,490
06:00:38.917195,500
06:00:38.917195,499
06:00:38.932963,502
06:00:38.949178,483
06:00:38.949178,470
06:00:38.965167,457
06:00:38.981254,459
06:00:38.981758,447
06:00:38.997318,444
06:00:38.997647,433
06:00:39.013034,431
06:00:39.029191,411
06:00:39.029553,401
06:00:39.044676,392
06:00:39.060653,398
06:00:39.061556,391
06:00:39.077298,391
06:00:39.077298,389
06:00:39.093036,399
06:00:39.109324,392
06:00:39.109324,394
06:00:39.125294,398
06:00:39.140530,412
06:00:39.141526,418
06:00:39.157323,430
06:00:39.157323,435
06:00:39.173331,446
06:00:39.189321,437
06:00:39.189666,437
06:00:39.205294,437
06:00:39.221509,452
06:00:39.221509,456
06:00:39.237286,468
06:00:39.237286,473
06:00:39.253296,484
06:00:39.268753,475
06:00:39.268753,477
06:00:39.285276,472
06:00:39.300385,471
06:00:39.301385,462
06:00:39.317058,463
06:00:39.333064,462
06:00:39.333064,472
06:00:39.349069,480
06:00:39.349069,493
06:00:39.365075,513
06:00:39.381088,551
06:00:39.381589,578
06:00:39.397314,608
06:00:39.413028,621
06:00:39.413566,635
06:00:39.429317,625
06:00:39.429317,619
06:00:39.445138,609
06:00:39.461319,608
06:00:39.461319,598
06:00:39.477230,595
06:00:39.493032,585
06:00:39.493542,584
06:00:39.509279,564
06:00:39.509640,557
06:00:39.525158,548
06:00:39.541275,552
06:00:39.541541,549
06:00:39.557022,553
06:00:39.573032,548
06:00:39.573594,551
06:00:39.589272,534
06:00:39.589272,527
06:00:39.605011,518
06:00:39.621247,519
06:00:39.621247,514
06:00:39.637180,513
06:00:39.653031,505
06:00:39.653482,502
06:00:39.669200,481
06:00:39.669617,472
06:00:39.685162,461
06:00:39.701317,463
06:00:39.701317,458
06:00:39.717317,459
06:00:39.733031,453
06:00:39.733031,453
06:00:39.749332,435
06:00:39.749611,427
06:00:39.765043,420
06:00:39.781071,426
06:00:39.781573,419
06:00:39.797085,406
06:00:39.813091,388
06:00:39.813091,379
06:00:39.829097,370
06:00:39.829097,372
06:00:39.845102,373
06:00:39.861109,383
06:00:39.861109,391
06:00:39.877113,416
06:00:39.893142,443
06:00:39.893640,467
06:00:39.909159,471
06:00:39.909159,478
06:00:39.925128,481
06:00:39.940541,488
06:00:39.941546,486
06:00:39.957164,486
06:00:39.973030,477
06:00:39.973030,472
06:00:39.989158,450
06:00:39.989666,440
06:00:40.004358,430
06:00:40.020545,431
06:00:40.021551,430
06:00:40.037114,433
06:00:40.053196,432
06:00:40.053619,431
06:00:40.069271,416
06:00:40.069271,411
06:00:40.085197,408
06:00:40.101312,416
06:00:40.101312,414
06:00:40.117307,419
06:00:40.132942,422
06:00:40.132942,424
06:00:40.149282,414
06:00:40.165020,413
06:00:40.165020,414
06:00:40.181276,422
06:00:40.181631,426
06:00:40.197267,432
06:00:40.213030,434
06:00:40.213540,432
06:00:40.228877,420
06:00:40.245177,416
06:00:40.245177,414
06:00:40.261364,419
06:00:40.261474,419
06:00:40.276880,424
06:00:40.292903,413
06:00:40.293403,396
06:00:40.308884,375
06:00:40.324890,362
06:00:40.324890,355
06:00:40.340896,359
06:00:40.340896,368
06:00:40.356901,395
06:00:40.372907,429
06:00:40.372907,459
06:00:40.389278,473
06:00:40.405309,487
06:00:40.405663,497
06:00:40.421307,513
06:00:40.421307,522
06:00:40.437306,531
06:00:40.452903,534
06:00:40.452903,529
06:00:40.469277,511
06:00:40.485307,502
06:00:40.485307,494
06:00:40.501159,494
06:00:40.501159,492
06:00:40.517299,492
06:00:40.533024,491
06:00:40.533024,488
06:00:40.549145,473
06:00:40.565165,469
06:00:40.565498,466
06:00:40.581319,473
06:00:40.581319,472
06:00:40.597299,475
06:00:40.613022,476
06:00:40.613647,476
06:00:40.629187,465
06:00:40.645226,464
06:00:40.645226,463
06:00:40.661153,469
06:00:40.661714,473
06:00:40.677325,480
06:00:40.693022,484
06:00:40.693605,485
06:00:40.709275,476
06:00:40.724521,478
06:00:40.725525,478
06:00:40.741304,487
06:00:40.741304,493
06:00:40.757482,500
06:00:40.772888,505
06:00:40.772888,505
06:00:40.788921,493
06:00:40.804302,478
06:00:40.805302,464
06:00:40.820308,457
06:00:40.821308,456
06:00:40.836313,460
06:00:40.852320,472
06:00:40.853318,491
06:00:40.868995,505
06:00:40.885170,529
06:00:40.885170,545
06:00:40.901301,562
06:00:40.901301,570
06:00:40.917345,575
06:00:40.933030,567
06:00:40.933030,553
06:00:40.949106,530
06:00:40.965304,514
06:00:40.965304,499
06:00:40.981152,493
06:00:40.981152,485
06:00:40.997302,477
06:00:41.013023,468
06:00:41.013568,458
06:00:41.029217,439
06:00:41.045157,431
06:00:41.045508,422
06:00:41.061151,421
06:00:41.076997,418
06:00:41.076997,415
06:00:41.093021,412
06:00:41.093529,406
06:00:41.108748,390
06:00:41.124551,384
06:00:41.125553,382
06:00:41.141163,382
06:00:41.157292,381
06:00:41.157292,381
06:00:41.173153,383
06:00:41.173153,381
06:00:41.189029,372
06:00:41.205293,370
06:00:41.205628,373
06:00:41.221298,379
06:00:41.237291,384
06:00:41.237629,388
06:00:41.253026,391
06:00:41.253526,388
06:00:41.268795,378
06:00:41.284801,375
06:00:41.284801,365
06:00:41.301333,351
06:00:41.316784,341
06:00:41.316784,335
06:00:41.332788,335
06:00:41.332788,341
06:00:41.348794,354
06:00:41.364801,379
06:00:41.364801,411
06:00:41.380806,441
06:00:41.397069,464
06:00:41.397438,476
06:00:41.412904,484
06:00:41.412904,480
06:00:41.429146,467
06:00:41.445298,459
06:00:41.445298,455
06:00:41.461294,451
06:00:41.477224,447
06:00:41.477224,445
06:00:41.493022,444
06:00:41.493583,434
06:00:41.509353,423
06:00:41.525294,419
06:00:41.525666,423
06:00:41.541293,432
06:00:41.557145,439
06:00:41.557145,446
06:00:41.573023,452
06:00:41.573520,452
06:00:41.589141,447
06:00:41.605138,450
06:00:41.605138,453
06:00:41.621134,461
06:00:41.636772,469
06:00:41.636772,473
06:00:41.653023,477
06:00:41.653023,470
06:00:41.669154,464
06:00:41.685291,467
06:00:41.685291,472
06:00:41.701250,483
06:00:41.717313,492
06:00:41.717637,498
06:00:41.733028,502
06:00:41.733028,498
06:00:41.749292,488
06:00:41.764608,487
06:00:41.765608,487
06:00:41.780614,480
06:00:41.797174,470
06:00:41.797675,462
06:00:41.812695,458
06:00:41.813693,457
06:00:41.828697,461
06:00:41.844703,470
06:00:41.844703,483
06:00:41.860708,499
06:00:41.876714,525
06:00:41.876714,552
06:00:41.893230,577
06:00:41.893471,587
06:00:41.909151,585
06:00:41.925281,586
06:00:41.925281,582
06:00:41.941128,582
06:00:41.957106,578
06:00:41.957602,568
06:00:41.972902,561
06:00:41.989288,543
06:00:41.989288,524
06:00:42.005307,510
06:00:42.005630,504
06:00:42.021287,499
06:00:42.037256,498
06:00:42.037615,493
06:00:42.052999,495
06:00:42.069236,483
06:00:42.069555,474
06:00:42.084753,466
06:00:42.084753,466
06:00:42.101136,463
06:00:42.117125,463
06:00:42.117125,459
06:00:42.133023,458
06:00:42.149156,445
06:00:42.149430,433
06:00:42.165004,424
06:00:42.165004,423
06:00:42.181284,419
06:00:42.197170,419
06:00:42.197610,416
06:00:42.213022,416
06:00:42.229285,404
06:00:42.229651,396
06:00:42.245282,389
06:00:42.245282,389
06:00:42.260542,389
06:00:42.276545,391
06:00:42.277544,390
06:00:42.293062,379
06:00:42.308795,359
06:00:42.308795,344
06:00:42.324801,334
06:00:42.324801,334
06:00:42.340806,336
06:00:42.356811,345
06:00:42.356811,365
06:00:42.372817,397
06:00:42.388823,416
06:00:42.389328,434
06:00:42.404854,446
06:00:42.404854,461
06:00:42.420545,468
06:00:42.437123,476
06:00:42.437123,477
06:00:42.453135,480
06:00:42.469282,468
06:00:42.469282,455
06:00:42.484825,445
06:00:42.484825,445
06:00:42.501184,438
06:00:42.517251,439
06:00:42.517617,435
06:00:42.533027,439
06:00:42.549244,433
06:00:42.549585,426
06:00:42.565266,424
06:00:42.565554,431
06:00:42.581273,434
06:00:42.597254,443
06:00:42.597760,444
06:00:42.613135,452
06:00:42.629143,448
06:00:42.629143,444
06:00:42.645145,444
06:00:42.645526,453
06:00:42.661130,461
06:00:42.676972,473
06:00:42.676972,481
06:00:42.693022,494
06:00:42.709095,494
06:00:42.709459,493
06:00:42.725276,492
06:00:42.725276,499
06:00:42.740545,503
06:00:42.757249,510
06:00:42.757249,511
06:00:42.773260,516
06:00:42.788711,501
06:00:42.789712,485
06:00:42.804841,464
06:00:42.805342,452
06:00:42.821217,441
06:00:42.837222,441
06:00:42.837222,441
06:00:42.853226,454
06:00:42.869232,467
06:00:42.869232,490
06:00:42.885238,514
06:00:42.901129,540
06:00:42.901397,556
06:00:42.917120,567
06:00:42.917120,567
06:00:42.932999,567
06:00:42.949144,551
06:00:42.949144,536
06:00:42.965140,520
06:00:42.980544,516
06:00:42.981551,507
06:00:42.997329,504
06:00:42.997647,496
06:00:43.013350,495
06:00:43.028837,479
06:00:43.028837,468
06:00:43.045272,463
06:00:43.060457,466
06:00:43.061451,468
06:00:43.077264,476
06:00:43.077264,479
06:00:43.093129,488
06:00:43.109308,479
06:00:43.109308,476
06:00:43.125123,473
06:00:43.141243,480
06:00:43.141243,484
06:00:43.156782,491
06:00:43.156782,493
06:00:43.173134,499
06:00:43.188981,487
06:00:43.188981,484
06:00:43.205128,482
06:00:43.221200,489
06:00:43.221531,491
06:00:43.237102,497
06:00:43.237102,496
06:00:43.252590,499
06:00:43.268919,484
06:00:43.268919,477
06:00:43.284925,462
06:00:43.301079,449
06:00:43.302086,429
06:00:43.317254,418
06:00:43.317254,408
06:00:43.333261,409
06:00:43.349266,406
06:00:43.349266,421
06:00:43.365271,440
06:00:43.381241,467
06:00:43.381241,484
06:00:43.397250,502
06:00:43.397250,502
06:00:43.413023,504
06:00:43.429244,486
06:00:43.429244,474
06:00:43.445125,461
06:00:43.461114,461
06:00:43.461114,450
06:00:43.476974,448
06:00:43.476974,438
06:00:43.492985,434
06:00:43.509293,416
06:00:43.509293,405
06:00:43.525119,396
06:00:43.541278,400
06:00:43.541562,397
06:00:43.557128,401
06:00:43.557128,399
06:00:43.573153,402
06:00:43.589116,388
06:00:43.589116,381
06:00:43.605237,377
06:00:43.621084,385
06:00:43.621084,383
06:00:43.636871,392
06:00:43.636871,395
06:00:43.652882,405
06:00:43.669264,397
06:00:43.669264,397
06:00:43.685225,397
06:00:43.701236,409
06:00:43.701640,411
06:00:43.717120,421
06:00:43.717120,425
06:00:43.733023,431
06:00:43.749265,425
06:00:43.749265,420
06:00:43.765125,418
06:00:43.781136,430
06:00:43.781136,425
06:00:43.796781,419
06:00:43.812810,403
06:00:43.813311,397
06:00:43.828820,389
06:00:43.828820,393
06:00:43.844829,395
06:00:43.860834,410
06:00:43.860834,424
06:00:43.876843,454
06:00:43.892843,478
06:00:43.892843,502
06:00:43.908741,502
06:00:43.909284,498
06:00:43.924955,484
06:00:43.941381,482
06:00:43.941381,474
06:00:43.957260,473
06:00:43.972852,464
06:00:43.972852,463
06:00:43.989113,440
06:00:43.989113,427
06:00:44.005231,416
06:00:44.021384,422
06:00:44.021627,419
06:00:44.037263,426
06:00:44.052671,427
06:00:44.052671,436
06:00:44.069261,425
06:00:44.069261,426
06:00:44.085105,426
06:00:44.101043,438
06:00:44.101043,441
06:00:44.116964,450
06:00:44.133125,452
06:00:44.133125,461
06:00:44.149120,451
06:00:44.149491,452
06:00:44.164386,454
06:00:44.180842,466
06:00:44.180842,471
06:00:44.197259,484
06:00:44.213143,491
06:00:44.213530,506
06:00:44.229258,500
06:00:44.229258,505
06:00:44.245321,509
06:00:44.261109,523
06:00:44.261109,529
06:00:44.276543,543
06:00:44.292549,540
06:00:44.293549,534
06:00:44.309013,515
06:00:44.309514,509
06:00:44.324978,503
06:00:44.340987,511
06:00:44.340987,517
06:00:44.356993,544
06:00:44.373102,574
06:00:44.373102,603
06:00:44.389015,609
06:00:44.389374,621
06:00:44.405101,626
06:00:44.421121,641
06:00:44.421121,636
06:00:44.437120,640
06:00:44.453022,634
06:00:44.453467,630
06:00:44.468878,606
06:00:44.468878,595
06:00:44.485094,582
06:00:44.500541,580
06:00:44.501545,571
06:00:44.517124,568
06:00:44.532779,561
06:00:44.532779,552
06:00:44.549103,530
06:00:44.549103,521
06:00:44.565227,512
06:00:44.581105,512
06:00:44.581105,505
06:00:44.597108,503
06:00:44.613022,493
06:00:44.613482,489
06:00:44.629224,468
06:00:44.629224,460
06:00:44.645071,450
06:00:44.661099,452
06:00:44.661457,448
06:00:44.677269,452
06:00:44.693022,452
06:00:44.693022,451
06:00:44.709117,436
06:00:44.725097,431
06:00:44.725388,427
06:00:44.741120,436
06:00:44.741120,433
06:00:44.757109,438
06:00:44.772743,436
06:00:44.772743,435
06:00:44.788637,418
06:00:44.804458,402
06:00:44.805457,383
06:00:44.821143,376
06:00:44.821143,369
06:00:44.837158,375
06:00:44.853159,385
06:00:44.853159,408
06:00:44.869168,423
06:00:44.885218,449
06:00:44.885218,467
06:00:44.900959,488
06:00:44.900959,496
06:00:44.917095,506
06:00:44.933024,506
06:00:44.933024,505
06:00:44.949095,487
06:00:44.965073,481
06:00:44.965073,472
06:00:44.981115,475
06:00:44.981484,471
06:00:44.996950,475
06:00:45.013026,472
06:00:45.013533,472
06:00:45.029248,456
06:00:45.045209,452
06:00:45.045567,448
06:00:45.061245,454
06:00:45.061245,453
06:00:45.077249,457
06:00:45.093131,455
06:00:45.093131,454
06:00:45.109152,439
06:00:45.124566,435
06:00:45.125573,432
06:00:45.141299,438
06:00:45.141596,439
06:00:45.157247,448
06:00:45.173134,444
06:00:45.173563,442
06:00:45.188939,429
06:00:45.205178,429
06:00:45.205178,421
06:00:45.221246,423
06:00:45.221246,421
06:00:45.237356,426
06:00:45.253146,427
06:00:45.253524,429
06:00:45.268919,417
06:00:45.284926,418
06:00:45.284926,410
06:00:45.300930,403
06:00:45.300930,394
06:00:45.316958,395
06:00:45.332477,395
06:00:45.333477,403
06:00:45.348485,411
06:00:45.365239,441
06:00:45.365239,470
06:00:45.381255,499
06:00:45.381255,519
06:00:45.397224,539
06:00:45.413262,550
06:00:45.413262,553
06:00:45.429061,541
06:00:45.445085,538
06:00:45.445085,534
06:00:45.460543,537
06:00:45.461551,535
06:00:45.477092,537
06:00:45.492809,535
06:00:45.492809,533
06:00:45.509088,518
06:00:45.525101,516
06:00:45.525101,510
06:00:45.540960,515
06:00:45.540960,514
06:00:45.556957,517
06:00:45.572835,519
06:00:45.572835,517
06:00:45.589086,505
06:00:45.605240,506
06:00:45.605240,507
06:00:45.621242,518
06:00:45.637271,524
06:00:45.637271,534
06:00:45.653093,541
06:00:45.653093,544
06:00:45.669035,535
06:00:45.685233,537
06:00:45.685233,542
06:00:45.701292,549
06:00:45.717231,553
06:00:45.717551,560
06:00:45.733021,562
06:00:45.733510,562
06:00:45.749209,550
06:00:45.764474,548
06:00:45.765476,548
06:00:45.780480,543
06:00:45.796924,530
06:00:45.796924,519
06:00:45.812939,512
06:00:45.813441,512
06:00:45.828465,513
06:00:45.844470,521
06:00:45.844470,529
06:00:45.860475,552
06:00:45.877096,577
06:00:45.877439,601
06:00:45.892544,616
06:00:45.893549,622
06:00:45.909081,610
06:00:45.925087,605
06:00:45.925087,596
06:00:45.941089,591
06:00:45.957104,582
06:00:45.957104,573
06:00:45.973092,562
06:00:45.973092,548
06:00:45.989081,525
06:00:46.005234,511
06:00:46.005593,502
06:00:46.021087,498
06:00:46.037097,492
06:00:46.037097,488
06:00:46.052698,483
06:00:46.052698,474
06:00:46.069263,458
06:00:46.085235,449
06:00:46.085235,444
06:00:46.100544,443
06:00:46.117230,442
06:00:46.117230,440
06:00:46.133022,439
06:00:46.133614,433
06:00:46.148585,420
06:00:46.165085,414
06:00:46.165085,415
06:00:46.181089,419
06:00:46.197069,424
06:00:46.197454,423
06:00:46.213016,423
06:00:46.213515,418
06:00:46.228890,404
06:00:46.244950,398
06:00:46.244950,397
06:00:46.261199,398
06:00:46.276959,400
06:00:46.276959,397
06:00:46.292964,386
06:00:46.292964,367
06:00:46.308902,349
06:00:46.324621,336
06:00:46.325621,331
06:00:46.340627,332
06:00:46.356632,343
06:00:46.356632,361
06:00:46.372639,389
06:00:46.373640,406
06:00:46.388934,416
06:00:46.405083,426
06:00:46.405083,431
06:00:46.421093,437
06:00:46.437006,442
06:00:46.437349,446
06:00:46.453087,450
06:00:46.453617,443
06:00:46.469082,435
06:00:46.485229,431
06:00:46.485601,432
06:00:46.501378,436
06:00:46.517064,443
06:00:46.517540,445
06:00:46.533027,450
06:00:46.549078,447
06:00:46.549481,444
06:00:46.565231,449
06:00:46.565231,454
06:00:46.581228,463
06:00:46.597311,473
06:00:46.597311,479
06:00:46.613163,489
06:00:46.629081,489
06:00:46.629081,489
06:00:46.644931,492
06:00:46.645415,501
06:00:46.661073,511
06:00:46.676951,522
06:00:46.677433,529
06:00:46.693024,539
06:00:46.709090,535
06:00:46.709431,531
06:00:46.725077,529
06:00:46.725454,533
06:00:46.740856,536
06:00:46.757067,539
06:00:46.757067,541
06:00:46.773076,546
06:00:46.789081,540
06:00:46.789081,528
06:00:46.804444,511
06:00:46.805445,501
06:00:46.820966,495
06:00:46.836556,497
06:00:46.836556,500
06:00:46.852566,517
06:00:46.868567,533
06:00:46.869564,554
06:00:46.884573,576
06:00:46.885567,599
06:00:46.900578,613
06:00:46.916917,622
06:00:46.917422,624
06:00:46.932657,625
06:00:46.949072,610
06:00:46.949072,596
06:00:46.965067,587
06:00:46.965406,585
06:00:46.981090,580
06:00:46.997227,576
06:00:46.997227,571
06:00:47.012991,568
06:00:47.029227,554
06:00:47.029581,538
06:00:47.045221,524
06:00:47.045221,519
06:00:47.061222,513
06:00:47.077254,508
06:00:47.077254,502
06:00:47.093023,500
06:00:47.109293,486
06:00:47.109293,471
06:00:47.125221,464
06:00:47.125580,464
06:00:47.141221,464
06:00:47.157191,470
06:00:47.157576,472
06:00:47.173022,478
06:00:47.188929,475
06:00:47.189594,470
06:00:47.205088,471
06:00:47.205088,477
06:00:47.221084,481
06:00:47.236913,488
06:00:47.237361,489
06:00:47.253075,493
06:00:47.269027,484
06:00:47.269027,479
06:00:47.285036,471
06:00:47.285036,460
06:00:47.301038,445
06:00:47.316925,435
06:00:47.317425,429
06:00:47.332446,431
06:00:47.348452,434
06:00:47.349452,445
06:00:47.364464,468
06:00:47.365458,492
06:00:47.380463,513
06:00:47.396475,528
06:00:47.397470,531
06:00:47.413114,530
06:00:47.429008,515
06:00:47.429008,500
06:00:47.445067,488
06:00:47.460910,480
06:00:47.461284,473
06:00:47.477074,468
06:00:47.477428,464
06:00:47.492683,459
06:00:47.509218,446
06:00:47.509577,435
06:00:47.525212,434
06:00:47.541067,434
06:00:47.541067,439
06:00:47.557034,448
06:00:47.557034,454
06:00:47.573028,462
06:00:47.589215,459
06:00:47.589215,453
06:00:47.605066,453
06:00:47.620980,458
06:00:47.621474,464
06:00:47.636342,468
06:00:47.637348,474
06:00:47.653023,479
06:00:47.669071,472
06:00:47.669460,467
06:00:47.685077,470
06:00:47.701080,477
06:00:47.701453,486
06:00:47.717053,492
06:00:47.717557,495
06:00:47.733024,504
06:00:47.749065,501
06:00:47.749065,500
06:00:47.764408,502
06:00:47.780375,514
06:00:47.781376,512
06:00:47.796832,506
06:00:47.796832,490
06:00:47.812839,482
06:00:47.828868,470
06:00:47.829369,468
06:00:47.844880,465
06:00:47.860885,473
06:00:47.860885,481
06:00:47.876896,507
06:00:47.876896,529
06:00:47.892705,554
06:00:47.909069,553
06:00:47.909069,554
06:00:47.925061,551
06:00:47.940548,555
06:00:47.941553,547
06:00:47.957056,544
06:00:47.957464,533
06:00:47.973022,526
06:00:47.989075,502
06:00:47.989430,487
06:00:48.005061,474
06:00:48.021208,475
06:00:48.021713,465
06:00:48.037023,465
06:00:48.037395,457
06:00:48.052718,455
06:00:48.069210,434
06:00:48.069210,423
06:00:48.085061,411
06:00:48.101179,412
06:00:48.101179,408
06:00:48.116318,411
06:00:48.117325,408
06:00:48.133091,410
06:00:48.149208,395
06:00:48.149208,390
06:00:48.165248,388
06:00:48.181053,397
06:00:48.181053,398
06:00:48.196662,406
06:00:48.196662,409
06:00:48.213063,416
06:00:48.229073,403
06:00:48.229073,398
06:00:48.244907,394
06:00:48.261054,400
06:00:48.261054,400
06:00:48.276525,410
06:00:48.292531,402
06:00:48.293532,391
06:00:48.308535,373
06:00:48.308535,365
06:00:48.325223,357
06:00:48.340745,360
06:00:48.340745,365
06:00:48.356750,391
06:00:48.372755,416
06:00:48.372755,448
06:00:48.389206,454
06:00:48.389206,462
06:00:48.405054,465
06:00:48.421171,475
06:00:48.421553,476
06:00:48.437203,480
06:00:48.453023,474
06:00:48.453460,473
06:00:48.469057,451
06:00:48.469590,440
06:00:48.485050,428
06:00:48.500892,427
06:00:48.501437,421
06:00:48.517051,422
06:00:48.533022,415
06:00:48.533496,415
06:00:48.549071,398
06:00:48.549071,391
06:00:48.565066,384
06:00:48.581053,387
06:00:48.581053,384
06:00:48.597059,387
06:00:48.612785,382
06:00:48.612785,382
06:00:48.629125,366
06:00:48.629482,361
06:00:48.645032,357
06:00:48.661172,364
06:00:48.661172,365
06:00:48.677202,371
06:00:48.693085,370
06:00:48.693085,374
06:00:48.709217,360
06:00:48.709510,357
06:00:48.725166,352
06:00:48.740401,357
06:00:48.741398,356
06:00:48.757199,362
06:00:48.773208,363
06:00:48.773208,366
06:00:48.788212,352
06:00:48.789212,339
06:00:48.805219,323
06:00:48.820733,321
06:00:48.821233,319
06:00:48.836396,331
06:00:48.852402,353
06:00:48.853400,387
06:00:48.868410,410
06:00:48.869405,440
06:00:48.885048,463
06:00:48.901191,491
06:00:48.901191,506
06:00:48.917236,521
06:00:48.933083,525
06:00:48.933083,529
06:00:48.949199,514
06:00:48.949199,508
06:00:48.965168,501
06:00:48.981015,503
06:00:48.981564,498
06:00:48.997197,500
06:00:49.013228,498
06:00:49.013228,494
06:00:49.029198,478
06:00:49.029198,473
06:00:49.045161,469
06:00:49.061167,475
06:00:49.061167,475
06:00:49.077179,474
06:00:49.093099,472
06:00:49.093463,472
06:00:49.109190,459
06:00:49.125165,457
06:00:49.125165,455
06:00:49.140538,461
06:00:49.141427,461
06:00:49.156902,466
06:00:49.173064,468
06:00:49.173442,468
06:00:49.189050,457
06:00:49.204882,456
06:00:49.205351,455
06:00:49.220670,464
06:00:49.221176,462
06:00:49.236908,468
06:00:49.253071,468
06:00:49.253071,470
06:00:49.268857,456
06:00:49.284863,455
06:00:49.284863,443
06:00:49.301159,432
06:00:49.301159,417
06:00:49.317165,412
06:00:49.333197,408
06:00:49.333197,414
06:00:49.348387,422
06:00:49.364396,448
06:00:49.365391,474
06:00:49.380399,503
06:00:49.381396,522
06:00:49.397166,534
06:00:49.413096,538
06:00:49.413395,539
06:00:49.429190,522
06:00:49.444264,514
06:00:49.445268,506
06:00:49.461174,506
06:00:49.461534,500
06:00:49.476896,497
06:00:49.493022,493
06:00:49.493436,489
06:00:49.509054,474
06:00:49.524883,471
06:00:49.525375,465
06:00:49.540409,468
06:00:49.541427,466
06:00:49.557054,467
06:00:49.573066,465
06:00:49.573066,458
06:00:49.589070,442
06:00:49.605028,433
06:00:49.605028,421
06:00:49.621041,421
06:00:49.621545,419
06:00:49.637367,420
06:00:49.653072,418
06:00:49.653518,415
06:00:49.669190,402
06:00:49.685161,402
06:00:49.685161,399
06:00:49.701039,405
06:00:49.701572,407
06:00:49.717052,412
06:00:49.733184,412
06:00:49.733184,409
06:00:49.749158,395
06:00:49.764790,392
06:00:49.764790,387
06:00:49.781002,393
06:00:49.781002,382
06:00:49.796512,370
06:00:49.812516,352
06:00:49.813517,343
06:00:49.829042,336
06:00:49.844561,339
06:00:49.845558,342
06:00:49.860563,359
06:00:49.860563,384
06:00:49.876574,415
06:00:49.893073,440
06:00:49.893073,454
06:00:49.908940,454
06:00:49.925024,452
06:00:49.925529,449
06:00:49.941041,446
06:00:49.941409,442
06:00:49.957036,441
06:00:49.973062,439
06:00:49.973468,433
06:00:49.988899,416
06:00:50.005149,412
06:00:50.005149,410
06:00:50.021052,415
06:00:50.037178,418
06:00:50.037453,422
06:00:50.053022,422
06:00:50.053022,420
06:00:50.069153,412
06:00:50.084920,413
06:00:50.084920,415
06:00:50.101183,423
06:00:50.117184,430
06:00:50.117184,439
06:00:50.133067,446
06:00:50.133067,449
06:00:50.149182,443
06:00:50.164917,446
06:00:50.164917,451
06:00:50.181182,462
06:00:50.196886,470
06:00:50.197509,480
06:00:50.213048,484
06:00:50.213048,486
06:00:50.229028,480
06:00:50.244734,481
06:00:50.244734,483
06:00:50.261047,488
06:00:50.276850,493
06:00:50.276850,502
06:00:50.292856,494
06:00:50.292856,480
06:00:50.308861,463
06:00:50.325380,455
06:00:50.325380,452
06:00:50.340642,453
06:00:50.356648,468
06:00:50.356648,495
06:00:50.372654,522
06:00:50.372654,537
06:00:50.389150,539
06:00:50.405178,541
06:00:50.405178,542
06:00:50.421180,544
06:00:50.437031,543
06:00:50.437031,539
06:00:50.453024,532
06:00:50.453024,518
06:00:50.469094,496
06:00:50.485115,481
06:00:50.485115,475
06:00:50.501030,473
06:00:50.516882,473
06:00:50.516882,469
06:00:50.532666,468
06:00:50.533174,457
06:00:50.548872,446
06:00:50.565178,442
06:00:50.565178,437
06:00:50.581087,438
06:00:50.597235,443
06:00:50.597492,440
06:00:50.613060,442
06:00:50.613481,437
06:00:50.629148,428
06:00:50.645177,425
06:00:50.645512,428
06:00:50.661028,433
06:00:50.677180,440
06:00:50.677518,442
06:00:50.692537,445
06:00:50.693545,438
06:00:50.708882,431
06:00:50.725032,427
06:00:50.725032,427
06:00:50.741027,429
06:00:50.757043,431
06:00:50.757043,432
06:00:50.773053,434
06:00:50.773053,430
06:00:50.788748,417
06:00:50.804755,400
06:00:50.804755,391
06:00:50.820764,387
06:00:50.836795,391
06:00:50.836795,396
06:00:50.852801,417
06:00:50.852801,436
06:00:50.868812,461
06:00:50.885171,487
06:00:50.885171,507
06:00:50.901226,524
06:00:50.917174,536
06:00:50.917174,537
06:00:50.933030,537
06:00:50.948990,523
06:00:50.948990,508
06:00:50.965030,493
06:00:50.965453,484
06:00:50.981082,476
06:00:50.997040,469
06:00:50.997398,458
06:00:51.013044,451
06:00:51.029016,435
06:00:51.029406,423
06:00:51.045168,414
06:00:51.045168,413
06:00:51.060546,412
06:00:51.076970,412
06:00:51.076970,409
06:00:51.093051,409
06:00:51.109140,397
06:00:51.109140,387
06:00:51.125021,382
06:00:51.125525,383
06:00:51.141172,382
06:00:51.157164,382
06:00:51.157500,380
06:00:51.173023,383
06:00:51.188512,375
06:00:51.189520,370
06:00:51.205164,369
06:00:51.205164,374
06:00:51.221169,378
06:00:51.237021,383
06:00:51.237021,385
06:00:51.253022,390
06:00:51.268786,384
06:00:51.268786,383
06:00:51.284539,384
06:00:51.284539,384
06:00:51.301038,379
06:00:51.316643,379
06:00:51.316643,382
06:00:51.332676,394
06:00:51.348692,409
06:00:51.348692,435
06:00:51.364698,470
06:00:51.364698,508
06:00:51.380995,539
06:00:51.397148,564
06:00:51.397148,575
06:00:51.413159,586
06:00:51.429034,579
06:00:51.429538,571
06:00:51.445031,568
06:00:51.445383,569
06:00:51.460546,568
06:00:51.477015,568
06:00:51.477015,566
06:00:51.493026,566
06:00:51.508873,555
06:00:51.508873,543
06:00:51.525176,536
06:00:51.525176,535
06:00:51.541166,534
06:00:51.557056,534
06:00:51.557056,531
06:00:51.573033,533
06:00:51.589161,523
06:00:51.589161,514
06:00:51.605163,506
06:00:51.605513,506
06:00:51.621016,507
06:00:51.636831,510
06:00:51.636831,511
06:00:51.653022,514
06:00:51.668879,505
06:00:51.668879,498
06:00:51.685022,492
06:00:51.685022,493
06:00:51.700546,494
06:00:51.717096,498
06:00:51.717096,499
06:00:51.733130,500
06:00:51.749160,491
06:00:51.749160,485
06:00:51.764679,481
06:00:51.764679,486
06:00:51.780686,483
06:00:51.796691,475
06:00:51.796691,458
06:00:51.812698,447
06:00:51.829218,438
06:00:51.829218,438
06:00:51.845238,439
06:00:51.860244,446
06:00:51.861243,460
06:00:51.876250,484
06:00:51.877249,509
06:00:51.892263,534
06:00:51.908266,539
06:00:51.909262,539
06:00:51.925020,539
06:00:51.941024,541
06:00:51.941024,539
06:00:51.957005,538
06:00:51.957482,532
06:00:51.972525,528
06:00:51.989026,508
06:00:51.989375,494
06:00:52.005010,484
06:00:52.021157,483
06:00:52.021513,479
06:00:52.037010,482
06:00:52.037010,480
06:00:52.052831,483
06:00:52.069158,472
06:00:52.069158,465
06:00:52.085158,462
06:00:52.100496,468
06:00:52.101601,470
06:00:52.117002,477
06:00:52.117407,480
06:00:52.132650,486
06:00:52.149023,474
06:00:52.149366,470
06:00:52.165023,466
06:00:52.181024,471
06:00:52.181024,471
06:00:52.197008,475
06:00:52.197008,473
06:00:52.213019,473
06:00:52.229161,457
06:00:52.229161,447
06:00:52.245147,443
06:00:52.261158,440
06:00:52.261158,438
06:00:52.277166,446
06:00:52.277166,439
06:00:52.293172,428
06:00:52.309177,410
06:00:52.309177,400
06:00:52.325150,390
06:00:52.341180,393
06:00:52.341180,401
06:00:52.357186,428
06:00:52.357186,455
06:00:52.373192,482
06:00:52.389154,486
06:00:52.389154,489
06:00:52.404890,489
06:00:52.421008,497
06:00:52.421008,493
06:00:52.436994,494
06:00:52.437357,488
06:00:52.453020,487
06:00:52.468870,468
06:00:52.469396,461
06:00:52.485040,457
06:00:52.500999,466
06:00:52.500999,465
06:00:52.516805,472
06:00:52.517268,475
06:00:52.533020,483
06:00:52.549204,475
06:00:52.549204,470
06:00:52.565003,470
06:00:52.581115,479
06:00:52.581115,483
06:00:52.597119,491
06:00:52.597491,494
06:00:52.612735,502
06:00:52.629249,494
06:00:52.629481,495
06:00:52.645192,498
06:00:52.661001,512
06:00:52.661001,518
06:00:52.676989,530
06:00:52.693019,536
06:00:52.693273,545
06:00:52.708847,539
06:00:52.708847,537
06:00:52.724855,534
06:00:52.740541,541
06:00:52.740541,542
06:00:52.756988,549
06:00:52.772998,551
06:00:52.772998,559
06:00:52.788274,546
06:00:52.789274,532
06:00:52.804280,517
06:00:52.820285,510
06:00:52.821287,504
06:00:52.837315,511
06:00:52.852330,517
06:00:52.853328,542
06:00:52.868336,557
06:00:52.869333,580
06:00:52.884343,600
06:00:52.900348,623
06:00:52.901346,634
06:00:52.917118,644
06:00:52.933033,643
06:00:52.933537,645
06:00:52.949148,625
06:00:52.949510,616
06:00:52.964992,607
06:00:52.981001,607
06:00:52.981372,604
06:00:52.996991,606
06:00:53.013023,603
06:00:53.013023,606
06:00:53.028938,592
06:00:53.028938,581
06:00:53.045027,574
06:00:53.060991,575
06:00:53.060991,572
06:00:53.076248,572
06:00:53.092728,567
06:00:53.092728,565
06:00:53.109145,546
06:00:53.109514,536
06:00:53.125145,528
06:00:53.141106,528
06:00:53.141485,525
06:00:53.157057,526
06:00:53.173041,524
06:00:53.173041,522
06:00:53.188992,505
06:00:53.188992,494
06:00:53.205143,488
06:00:53.220547,485
06:00:53.220547,482
06:00:53.236995,480
06:00:53.252233,477
06:00:53.253228,473
06:00:53.268819,457
06:00:53.268819,449
06:00:53.284944,435
06:00:53.300456,423
06:00:53.301448,405
06:00:53.316219,397
06:00:53.332735,389
06:00:53.333236,393
06:00:53.349258,399
06:00:53.349258,417
06:00:53.365263,442
06:00:53.380270,467
06:00:53.381269,482
06:00:53.397130,492
06:00:53.413038,496
06:00:53.413414,495
06:00:53.429248,481
06:00:53.429248,472
06:00:53.444834,468
06:00:53.460991,466
06:00:53.461442,465
06:00:53.476992,465
06:00:53.493020,464
06:00:53.493429,460
06:00:53.508856,447
06:00:53.508856,439
06:00:53.525002,437
06:00:53.540974,439
06:00:53.541472,437
06:00:53.557140,442
06:00:53.573028,441
06:00:53.573028,441
06:00:53.589136,429
06:00:53.589502,427
06:00:53.604881,426
06:00:53.620956,435
06:00:53.621491,441
06:00:53.637140,454
06:00:53.653020,465
06:00:53.653433,474
06:00:53.669002,471
06:00:53.684508,480
06:00:53.685386,486
06:00:53.700983,501
06:00:53.700983,510
06:00:53.716989,524
06:00:53.733027,532
06:00:53.733343,540
06:00:53.749136,531
06:00:53.764435,535
06:00:53.765434,537
06:00:53.780569,551
06:00:53.780569,548
06:00:53.796570,544
06:00:53.812575,531
06:00:53.812575,527
06:00:53.829089,521
06:00:53.844914,528
06:00:53.844914,533
06:00:53.860917,545
06:00:53.860917,564
06:00:53.876922,596
06:00:53.892928,626
06:00:53.892928,647
06:00:53.908932,644
06:00:53.924820,650
06:00:53.925258,639
06:00:53.941104,636
06:00:53.941492,628
06:00:53.957134,625
06:00:53.973029,620
06:00:53.973469,610
06:00:53.989157,591
06:00:54.005099,581
06:00:54.005099,573
06:00:54.021103,573
06:00:54.021103,568
06:00:54.037133,568
06:00:54.053028,564
06:00:54.053028,558
06:00:54.068950,538
06:00:54.085097,530
06:00:54.085097,523
06:00:54.101105,527
06:00:54.101500,527
06:00:54.116925,533
06:00:54.133020,534
06:00:54.133385,533
06:00:54.148836,518
06:00:54.164824,518
06:00:54.165370,512
06:00:54.180535,515
06:00:54.180535,513
06:00:54.196994,517
06:00:54.213021,515
06:00:54.213021,514
06:00:54.229130,497
06:00:54.244948,495
06:00:54.244948,487
06:00:54.260724,490
06:00:54.260724,491
06:00:54.276985,484
06:00:54.292990,466
06:00:54.292990,452
06:00:54.308830,437
06:00:54.324839,433
06:00:54.324839,430
06:00:54.340871,446
06:00:54.341370,466
06:00:54.356390,492
06:00:54.372399,512
06:00:54.373398,521
06:00:54.388986,512
06:00:54.404974,508
06:00:54.404974,501
06:00:54.420992,501
06:00:54.420992,495
06:00:54.436992,494
06:00:54.453022,487
06:00:54.453398,481
06:00:54.468978,462
06:00:54.484944,456
06:00:54.484944,447
06:00:54.501144,448
06:00:54.501144,444
06:00:54.516979,445
06:00:54.533021,444
06:00:54.533350,439
06:00:54.549128,422
06:00:54.564944,417
06:00:54.565464,413
06:00:54.580894,418
06:00:54.596978,417
06:00:54.596978,420
06:00:54.612991,420
06:00:54.612991,416
06:00:54.628973,403
06:00:54.644963,401
06:00:54.644963,401
06:00:54.660985,409
06:00:54.676883,414
06:00:54.677269,422
06:00:54.693021,424
06:00:54.693021,424
06:00:54.709117,412
06:00:54.725205,410
06:00:54.725205,410
06:00:54.741125,415
06:00:54.757118,417
06:00:54.757118,423
06:00:54.773125,427
06:00:54.773125,427
06:00:54.788647,412
06:00:54.804974,398
06:00:54.804974,383
06:00:54.820260,379
06:00:54.836779,378
06:00:54.837279,387
06:00:54.852298,403
06:00:54.853297,427
06:00:54.868303,447
06:00:54.884317,474
06:00:54.885310,496
06:00:54.900545,518
06:00:54.916990,530
06:00:54.916990,539
06:00:54.932798,540
06:00:54.933294,537
06:00:54.948970,520
06:00:54.965084,513
06:00:54.965084,509
06:00:54.980972,511
06:00:54.997121,511
06:00:54.997473,512
06:00:55.012491,512
06:00:55.013499,507
06:00:55.029078,499
06:00:55.045092,497
06:00:55.045092,496
06:00:55.061121,501
06:00:55.077120,507
06:00:55.077120,512
06:00:55.093021,519
06:00:55.093390,518
06:00:55.108964,514
06:00:55.124600,517
06:00:55.124600,521
06:00:55.141118,530
06:00:55.156970,539
06:00:55.156970,541
06:00:55.173023,543
06:00:55.173023,538
06:00:55.188962,530
06:00:55.204235,527
06:00:55.205296,527
06:00:55.221077,525
06:00:55.237125,524
06:00:55.237630,526
06:00:55.253021,528
06:00:55.253021,526
06:00:55.268420,518
06:00:55.284737,519
06:00:55.284737,509
06:00:55.300743,499
06:00:55.316747,486
06:00:55.316747,479
06:00:55.332759,476
06:00:55.333261,478
06:00:55.348285,483
06:00:55.364293,506
06:00:55.365292,525
06:00:55.380298,546
06:00:55.396965,563
06:00:55.396965,569
06:00:55.412993,570
06:00:55.412993,557
06:00:55.428807,541
06:00:55.444968,531
06:00:55.444968,523
06:00:55.461115,518
06:00:55.477114,516
06:00:55.477476,508
06:00:55.493034,500
06:00:55.509079,483
06:00:55.509488,467
06:00:55.524964,461
06:00:55.524964,455
06:00:55.541113,455
06:00:55.556768,453
06:00:55.556768,451
06:00:55.573022,450
06:00:55.588951,438
06:00:55.588951,426
06:00:55.604964,422
06:00:55.605287,422
06:00:55.620306,426
06:00:55.636975,427
06:00:55.637466,428
06:00:55.652586,428
06:00:55.668805,421
06:00:55.669360,414
06:00:55.685114,412
06:00:55.685114,414
06:00:55.701276,418
06:00:55.717111,419
06:00:55.717111,420
06:00:55.733021,420
06:00:55.748873,411
06:00:55.748873,403
06:00:55.764474,401
06:00:55.764474,403
06:00:55.780478,406
06:00:55.796485,397
06:00:55.797486,385
06:00:55.812489,373
06:00:55.828496,366
06:00:55.829496,365
06:00:55.844529,368
06:00:55.845030,376
06:00:55.860217,389
06:00:55.876225,410
06:00:55.877220,439
06:00:55.893022,464
06:00:55.908860,475
06:00:55.908860,476
06:00:55.924978,476
06:00:55.925338,477
06:00:55.941108,472
06:00:55.956965,468
06:00:55.956965,464
06:00:55.973023,458
06:00:55.988503,446
06:00:55.989500,431
06:00:56.004973,426
06:00:56.004973,425
06:00:56.020497,428
06:00:56.037038,427
06:00:56.037038,429
06:00:56.053020,427
06:00:56.069077,422
06:00:56.069077,414
06:00:56.084740,414
06:00:56.084740,420
06:00:56.101106,426
06:00:56.117100,433
06:00:56.117100,438
06:00:56.132886,443
06:00:56.149079,441
06:00:56.149079,433
06:00:56.164960,434
06:00:56.164960,441
06:00:56.181108,449
06:00:56.196828,455
06:00:56.196828,458
06:00:56.213032,462
06:00:56.228878,454
06:00:56.228878,448
06:00:56.244966,447
06:00:56.245304,450
06:00:56.261160,453
06:00:56.276665,458
06:00:56.276665,452
06:00:56.292675,441
06:00:56.308680,422
06:00:56.308680,408
06:00:56.324687,397
06:00:56.324687,395
06:00:56.341211,401
06:00:56.356831,419
06:00:56.356831,446
06:00:56.372951,468
06:00:56.388288,479
06:00:56.389294,483
06:00:56.404956,485
06:00:56.420968,487
06:00:56.420968,487
06:00:56.436818,483
06:00:56.437211,470
06:00:56.453023,462
06:00:56.469103,445
06:00:56.469103,431
06:00:56.485265,421
06:00:56.501100,420
06:00:56.501432,418
06:00:56.517098,419
06:00:56.517098,412
06:00:56.533021,410
06:00:56.548953,395
06:00:56.549365,384
06:00:56.565100,379
06:00:56.580543,379
06:00:56.581548,379
06:00:56.596326,378
06:00:56.597447,376
06:00:56.613023,375
06:00:56.628800,363
06:00:56.628800,355
06:00:56.644813,354
06:00:56.660945,360
06:00:56.661295,365
06:00:56.676963,371
06:00:56.676963,374
06:00:56.692971,376
06:00:56.708950,368
06:00:56.708950,363
06:00:56.724949,362
06:00:56.741041,367
06:00:56.741041,371
06:00:56.756961,376
06:00:56.757324,378
06:00:56.772674,382
06:00:56.788479,373
06:00:56.788479,359
06:00:56.804862,342
06:00:56.820509,334
06:00:56.821509,331
06:00:56.837033,335
06:00:56.837033,343
06:00:56.852567,364
06:00:56.868568,381
06:00:56.868568,403
06:00:56.885035,425
06:00:56.901097,447
06:00:56.901097,459
06:00:56.917022,467
06:00:56.917413,468
06:00:56.933022,465
06:00:56.948953,447
06:00:56.949291,434
06:00:56.964961,424
06:00:56.980963,422
06:00:56.981329,416
06:00:56.996811,412
06:00:56.997169,406
06:00:57.012365,403
06:00:57.028943,386
06:00:57.029351,376
06:00:57.045086,371
06:00:57.061208,373
06:00:57.061208,372
06:00:57.077064,376
06:00:57.077064,378
06:00:57.092696,384
06:00:57.109094,376
06:00:57.109472,376
06:00:57.125091,382
06:00:57.140979,396
06:00:57.141342,403
06:00:57.157090,413
06:00:57.157090,420
06:00:57.172995,428
06:00:57.188944,422
06:00:57.188944,422
06:00:57.204938,426
06:00:57.220439,436
06:00:57.221433,442
06:00:57.236931,451
06:00:57.237285,457
06:00:57.253048,465
06:00:57.268811,458
06:00:57.268811,462
06:00:57.284818,459
06:00:57.300777,457
06:00:57.300777,449
06:00:57.316784,447
06:00:57.332788,446
06:00:57.332788,452
06:00:57.348823,458
06:00:57.349322,478
06:00:57.364341,503
06:00:57.380348,529
06:00:57.381345,547
06:00:57.396352,562
06:00:57.413021,567
06:00:57.413021,570
06:00:57.429091,556
06:00:57.429091,548
06:00:57.445083,543
06:00:57.460542,540
06:00:57.461548,534
06:00:57.477054,528
06:00:57.493022,522
06:00:57.493022,519
06:00:57.509086,503
06:00:57.509086,491
06:00:57.525101,486
06:00:57.541088,486
06:00:57.541088,485
06:00:57.557102,487
06:00:57.573022,485
06:00:57.573299,485
06:00:57.588936,471
06:00:57.589544,465
06:00:57.604938,462
06:00:57.621086,463
06:00:57.621445,464
06:00:57.636812,468
06:00:57.653023,470
06:00:57.653387,473
06:00:57.668733,461
06:00:57.668733,457
06:00:57.684940,456
06:00:57.700784,461
06:00:57.700784,464
06:00:57.716925,463
06:00:57.733021,460
06:00:57.733021,461
06:00:57.748861,449
06:00:57.748861,446
06:00:57.764438,445
06:00:57.780942,451
06:00:57.780942,447
06:00:57.796140,436
06:00:57.813146,419
06:00:57.813146,409
06:00:57.829150,399
06:00:57.829150,401
06:00:57.845171,401
06:00:57.860696,417
06:00:57.860696,438
06:00:57.876703,466
06:00:57.893030,488
06:00:57.893030,501
06:00:57.909085,494
06:00:57.909085,492
06:00:57.924488,490
06:00:57.941049,491
06:00:57.941464,487
06:00:57.957087,485
06:00:57.973020,480
06:00:57.973454,472
06:00:57.988936,452
06:00:57.988936,443
06:00:58.004929,435
06:00:58.020928,436
06:00:58.020928,429
06:00:58.036926,429
06:00:58.052602,425
06:00:58.053098,421
06:00:58.068797,405
06:00:58.069335,400
06:00:58.084948,398
06:00:58.100946,404
06:00:58.101306,407
06:00:58.116919,415
06:00:58.132300,420
06:00:58.133312,423
06:00:58.149078,414
06:00:58.165081,416
06:00:58.165380,420
06:00:58.180931,434
06:00:58.180931,441
06:00:58.196936,453
06:00:58.212664,462
06:00:58.212664,466
06:00:58.229078,462
06:00:58.244998,465
06:00:58.244998,471
06:00:58.261049,485
06:00:58.261462,495
06:00:58.277037,510
06:00:58.293042,507
06:00:58.293042,500
06:00:58.308598,486
06:00:58.324601,480
06:00:58.324601,476
06:00:58.340624,482
06:00:58.341121,487
06:00:58.356652,509
06:00:58.372658,538
06:00:58.372658,564
06:00:58.388870,572
06:00:58.404921,583
06:00:58.404921,591
06:00:58.420916,599
06:00:58.421283,601
06:00:58.437277,603
06:00:58.453027,602
06:00:58.453381,596
06:00:58.469075,576
06:00:58.485076,566
06:00:58.485424,557
06:00:58.501046,555
06:00:58.501046,549
06:00:58.517162,546
06:00:58.533024,542
06:00:58.533024,534
06:00:58.549075,515
06:00:58.565069,507
06:00:58.565069,502
06:00:58.580546,504
06:00:58.580546,503
06:00:58.597076,506
06:00:58.613064,507
06:00:58.613064,505
06:00:58.628920,493
06:00:58.644785,496
06:00:58.645289,494
06:00:58.660545,503
06:00:58.660545,507
06:00:58.676928,514
06:00:58.693022,518
06:00:58.693022,519
06:00:58.708936,506
06:00:58.724912,507
06:00:58.724912,506
06:00:58.741049,513
06:00:58.741049,516
06:00:58.757184,523
06:00:58.772377,527
06:00:58.773376,529
06:00:58.788634,515
06:00:58.804843,501
06:00:58.804843,486
06:00:58.820848,480
06:00:58.820848,474
06:00:58.836855,478
06:00:58.852879,485
06:00:58.853378,502
06:00:58.868895,511
06:00:58.884900,527
06:00:58.884900,539
06:00:58.900921,550
06:00:58.901332,552
06:00:58.916933,552
06:00:58.933022,545
06:00:58.933330,533
06:00:58.948619,507
06:00:58.964909,493
06:00:58.964909,480
06:00:58.980383,473
06:00:58.997071,465
06:00:58.997318,459
06:00:59.013022,452
06:00:59.013022,443
06:00:59.029074,423
06:00:59.045034,412
06:00:59.045540,407
06:00:59.060124,405
06:00:59.076860,401
06:00:59.076860,397
06:00:59.093023,392
06:00:59.093023,388
06:00:59.108930,376
06:00:59.124760,373
06:00:59.124760,374
06:00:59.140913,379
06:00:59.156784,381
06:00:59.157265,384
06:00:59.173022,384
06:00:59.173022,381
06:00:59.189066,368
06:00:59.205060,365
06:00:59.205060,366
06:00:59.220961,371
06:00:59.237058,376
06:00:59.237058,380
06:00:59.253021,382
06:00:59.253442,381
06:00:59.268342,370
06:00:59.284924,367
06:00:59.284924,356
06:00:59.300259,348
06:00:59.316264,336
06:00:59.317264,335
06:00:59.332269,333
06:00:59.333271,343
06:00:59.348788,353
06:00:59.364812,380
06:00:59.364812,410
06:00:59.380817,442
06:00:59.396822,463
06:00:59.396822,482
06:00:59.412814,490
06:00:59.412814,493
06:00:59.429065,480
06:00:59.445042,481
06:00:59.445424,481
06:00:59.460522,488
06:00:59.476915,487
06:00:59.476915,492
06:00:59.493021,492
06:00:59.493021,490
06:00:59.509061,477
06:00:59.524941,477
06:00:59.524941,475
06:00:59.540917,482
06:00:59.556918,486
06:00:59.556918,492
06:00:59.572747,493
06:00:59.572747,494
06:00:59.588424,482
06:00:59.604665,483
06:00:59.605213,481
06:00:59.620925,488
06:00:59.636924,492
06:00:59.637275,495
06:00:59.653021,496
06:00:59.653021,494
06:00:59.668909,486
06:00:59.684900,488
06:00:59.684900,488
06:00:59.701058,495
06:00:59.717051,495
06:00:59.717051,499
06:00:59.733059,499
06:00:59.733059,495
06:00:59.749174,483
06:00:59.764602,483
06:00:59.764602,483
06:00:59.780606,490
06:00:59.796621,482
06:00:59.796621,472
06:00:59.812628,455
06:00:59.812628,450
06:00:59.828633,443
06:00:59.844640,449
06:00:59.844640,451
06:00:59.860672,475
06:00:59.876687,502
06:00:59.876687,529
06:00:59.892698,550
06:00:59.908699,557
06:00:59.908699,554
06:00:59.924750,560
06:00:59.924750,556
06:00:59.941055,560
06:00:59.957051,559
06:00:59.957390,556
06:00:59.972740,550
06:00:59.988655,541
06:00:59.988655,526
06:01:00.005022,525